,A,AA,AAPL,ABC,ABT,ACE,ACN,ADBE,ADI,ADM,ADP,ADSK,AEE,AEP,AES,AET,AFL,AGN,AIG,AIV,AIZ,AKAM,ALL,ALTR,ALXN,AMAT,AMD,AMGN,AMP,AMT,AMZN,AN,ANF,ANR,AON,APA,APC,APD,APH,APOL,ARG,ATI,AVB,AVP,AVY,AXP,AZO,BA,BAC,BAX,BBBY,BBT,BBY,BCR,BDX,BEAM,BEN,BF.B,BHI,BIG,BIIB,BK,BLK,BLL,BMC,BMS,BMY,BRCM,BRK.B,BSX,BTU,BXP,C,CA,CAG,CAH,CAM,CAT,CB,CBE,CBG,CBS,CCE,CCI,CCL,CELG,CERN,CF,CFN,CHK,CHRW,CI,CINF,CL,CLF,CLX,CMA,CMCSA,CME,CMG,CMI,CMS,CNP,CNX,COF,COG,COH,COL,COP,COST,COV,CPB,CRM,CSC,CSCO,CSX,CTAS,CTL,CTSH,CTXS,CVC,CVH,CVS,CVX,D,DD,DE,DELL,DF,DFS,DGX,DHI,DHR,DIS,DISCA,DLTR,DNB,DNR,DO,DOV,DOW,DPS,DRI,DTE,DTV,DUK,DV,DVA,DVN,EA,EBAY,ECL,ED,EFX,EIX,EL,EMC,EMN,EMR,EOG,EQR,EQT,ESRX,ESV,ETFC,ETN,ETR,EW,EXC,EXPD,EXPE,F,FAST,FCX,FDO,FDX,FE,FFIV,FHN,FII,FIS,FISV,FITB,FLIR,FLR,FLS,FMC,FOSL,FRX,FSLR,FTI,FTR,GAS,GCI,GD,GE,GILD,GIS,GLW,GME,GNW,GOOG,GPC,GPS,GS,GT,GWW,HAL,HAR,HAS,HBAN,HCBK,HCN,HCP,HD,HES,HIG,HNZ,HOG,HON,HOT,HP,HPQ,HRB,HRL,HRS,HSP,HST,HSY,HUM,IBM,ICE,IFF,IGT,INTC,INTU,IP,IPG,IR,IRM,ISRG,ITW,IVZ,JBL,JCI,JCP,JDSU,JEC,JNJ,JNPR,JOY,JPM,JWN,K,KEY,KFT,KIM,KLAC,KMB,KMX,KO,KR,KSS,L,LEG,LEN,LH,LIFE,LLL,LLTC,LLY,LM,LMT,LNC,LO,LOW,LRCX,LSI,LTD,LUK,LUV,LXK,M,MA,MAR,MAS,MAT,MCD,MCHP,MCK,MCO,MDT,MET,MHP,MJN,MKC,MMC,MMM,MNST,MO,MOLX,MON,MOS,MRK,MRO,MS,MSFT,MSI,MTB,MU,MUR,MWV,MYL,NBL,NBR,NDAQ,NE,NEE,NEM,NFLX,NFX,NI,NKE,NOC,NOV,NRG,NSC,NTAP,NTRS,NU,NUE,NVDA,NWL,NWSA,NYX,OI,OKE,OMC,ORCL,ORLY,OXY,PAYX,PBCT,PBI,PCAR,PCG,PCL,PCLN,PCP,PCS,PDCO,PEP,PFE,PFG,PG,PGR,PH,PHM,PKI,PLD,PLL,PM,PNC,PNW,POM,PPG,PPL,PRGO,PRU,PSA,PWR,PX,PXD,QCOM,R,RAI,RDC,RF,RHI,RHT,RL,ROK,ROP,ROST,RRC,RRD,RSG,RTN,S,SAI,SBUX,SCG,SCHW,SE,SEE,SHLD,SHW,SIAL,SJM,SLB,SLM,SNA,SNDK,SNI,SO,SPG,SPLS,SRCL,SRE,STI,STJ,STT,STX,STZ,SUN,SWK,SWN,SWY,SYK,SYMC,SYY,T,TAP,TDC,TE,TEG,TEL,TER,TGT,THC,TIE,TIF,TJX,TMK,TMO,TROW,TRV,TSN,TSO,TSS,TWC,TWX,TXN,TXT,TYC,UNH,UNM,UNP,UPS,URBN,USB,UTX,V,VAR,VFC,VIAB,VLO,VMC,VNO,VRSN,VTR,VZ,WAG,WAT,WDC,WEC,WFC,WFM,WHR,WIN,WLP,WM,WMB,WMT,WPI,WPO,WU,WY,WYN,WYNN,X,XEL,XL,XLNX,XOM,XRAY,XRX,YHOO,YUM,ZION,ZMH,SPY,CASH,PORTFOLIO
2008-01-31 16:00:00,100.0,100.0,0.0,100.0,0.0,0.0,100.0,100.0,100.0,100.0,100.0,100.0,0.0,0.0,100.0,0.0,0.0,100.0,100.0,100.0,100.0,100.0,0.0,100.0,100.0,100.0,100.0,100.0,100.0,100.0,0.0,0.0,0.0,0.0,0.0,100.0,100.0,100.0,100.0,100.0,100.0,100.0,100.0,0.0,100.0,100.0,0.0,100.0,0.0,100.0,0.0,0.0,100.0,100.0,0.0,100.0,100.0,0.0,0.0,0.0,100.0,100.0,0.0,0.0,100.0,0.0,0.0,100.0,100.0,100.0,100.0,100.0,100.0,100.0,100.0,100.0,0.0,0.0,100.0,100.0,100.0,100.0,0.0,100.0,0.0,0.0,100.0,100.0,0.0,100.0,0.0,0.0,100.0,0.0,0.0,0.0,0.0,0.0,100.0,0.0,100.0,0.0,100.0,100.0,0.0,0.0,0.0,100.0,100.0,100.0,100.0,100.0,0.0,100.0,100.0,0.0,0.0,100.0,100.0,100.0,100.0,0.0,0.0,100.0,0.0,100.0,100.0,100.0,100.0,0.0,100.0,0.0,0.0,100.0,0.0,0.0,0.0,100.0,100.0,100.0,0.0,0.0,0.0,0.0,100.0,0.0,100.0,0.0,100.0,0.0,0.0,100.0,0.0,0.0,100.0,100.0,0.0,0.0,100.0,100.0,100.0,100.0,100.0,0.0,0.0,100.0,0.0,100.0,0.0,0.0,0.0,100.0,100.0,100.0,0.0,0.0,0.0,100.0,0.0,100.0,0.0,100.0,0.0,100.0,100.0,0.0,100.0,100.0,100.0,100.0,0.0,100.0,100.0,100.0,100.0,100.0,0.0,100.0,0.0,0.0,100.0,0.0,100.0,100.0,100.0,100.0,100.0,100.0,100.0,0.0,100.0,0.0,100.0,100.0,0.0,100.0,100.0,0.0,100.0,100.0,0.0,100.0,100.0,0.0,100.0,100.0,100.0,100.0,100.0,100.0,100.0,0.0,0.0,100.0,100.0,100.0,0.0,0.0,100.0,100.0,0.0,100.0,100.0,0.0,0.0,0.0,100.0,0.0,0.0,100.0,100.0,0.0,0.0,100.0,0.0,0.0,100.0,100.0,0.0,0.0,0.0,0.0,0.0,100.0,0.0,0.0,100.0,0.0,0.0,100.0,0.0,100.0,100.0,100.0,0.0,0.0,100.0,0.0,0.0,100.0,100.0,0.0,0.0,0.0,0.0,0.0,0.0,0.0,0.0,100.0,100.0,0.0,100.0,100.0,0.0,0.0,100.0,100.0,0.0,100.0,100.0,100.0,100.0,0.0,100.0,100.0,0.0,0.0,0.0,100.0,100.0,100.0,100.0,100.0,100.0,100.0,0.0,100.0,100.0,0.0,100.0,100.0,100.0,100.0,100.0,100.0,0.0,100.0,100.0,0.0,0.0,100.0,100.0,100.0,100.0,0.0,100.0,100.0,0.0,100.0,100.0,100.0,100.0,100.0,100.0,0.0,100.0,100.0,100.0,100.0,0.0,0.0,100.0,0.0,0.0,100.0,100.0,0.0,100.0,0.0,100.0,0.0,0.0,0.0,0.0,100.0,0.0,0.0,100.0,100.0,100.0,100.0,100.0,0.0,0.0,100.0,100.0,0.0,0.0,100.0,100.0,100.0,100.0,0.0,100.0,100.0,100.0,0.0,100.0,0.0,100.0,0.0,0.0,0.0,0.0,0.0,100.0,0.0,100.0,0.0,0.0,0.0,0.0,0.0,0.0,0.0,0.0,100.0,0.0,0.0,0.0,100.0,0.0,100.0,100.0,0.0,100.0,0.0,0.0,0.0,100.0,100.0,0.0,0.0,100.0,0.0,100.0,0.0,0.0,100.0,100.0,100.0,100.0,100.0,0.0,100.0,100.0,100.0,100.0,100.0,100.0,100.0,100.0,100.0,100.0,0.0,100.0,0.0,0.0,0.0,100.0,100.0,0.0,100.0,0.0,100.0,100.0,0.0,100.0,100.0,100.0,0.0,100.0,0.0,100.0,0.0,0.0,0.0,0.0,100.0,0.0,100.0,100.0,0.0,0.0,0.0,100.0,100.0,0.0,0.0,100.0,0.0,100.0,100.0,100.0,0.0,100.0,0.0,100.0,0.0,0.0,100.0,-1189165.0,100000.0
2008-02-01 16:00:00,200.0,100.0,0.0,200.0,100.0,100.0,100.0,200.0,100.0,200.0,200.0,200.0,0.0,0.0,200.0,0.0,0.0,200.0,200.0,100.0,200.0,200.0,0.0,100.0,200.0,100.0,100.0,200.0,100.0,200.0,100.0,0.0,0.0,0.0,100.0,200.0,200.0,200.0,200.0,200.0,200.0,200.0,100.0,0.0,100.0,200.0,0.0,200.0,0.0,200.0,0.0,0.0,200.0,200.0,100.0,200.0,200.0,0.0,0.0,0.0,100.0,200.0,0.0,0.0,200.0,0.0,0.0,100.0,200.0,200.0,200.0,100.0,100.0,100.0,200.0,200.0,0.0,0.0,200.0,200.0,100.0,100.0,0.0,200.0,0.0,0.0,200.0,200.0,0.0,200.0,0.0,0.0,200.0,100.0,0.0,100.0,0.0,0.0,200.0,100.0,200.0,100.0,200.0,100.0,0.0,100.0,0.0,200.0,200.0,200.0,200.0,200.0,0.0,200.0,200.0,0.0,0.0,200.0,200.0,200.0,100.0,100.0,0.0,200.0,100.0,200.0,200.0,100.0,200.0,0.0,100.0,0.0,100.0,200.0,0.0,0.0,0.0,200.0,100.0,100.0,0.0,0.0,0.0,100.0,100.0,100.0,200.0,100.0,200.0,0.0,100.0,200.0,0.0,0.0,200.0,100.0,0.0,0.0,200.0,200.0,100.0,200.0,200.0,100.0,0.0,200.0,100.0,200.0,100.0,100.0,100.0,100.0,100.0,200.0,0.0,0.0,100.0,100.0,0.0,200.0,0.0,200.0,0.0,100.0,200.0,0.0,200.0,200.0,200.0,200.0,0.0,200.0,100.0,200.0,200.0,200.0,100.0,200.0,0.0,100.0,200.0,100.0,100.0,200.0,100.0,100.0,200.0,200.0,200.0,0.0,100.0,0.0,200.0,200.0,100.0,200.0,200.0,0.0,200.0,100.0,0.0,100.0,200.0,0.0,200.0,200.0,200.0,100.0,200.0,200.0,100.0,100.0,100.0,100.0,200.0,200.0,0.0,0.0,200.0,100.0,0.0,200.0,200.0,100.0,0.0,0.0,200.0,100.0,0.0,200.0,100.0,0.0,0.0,100.0,0.0,0.0,100.0,100.0,100.0,0.0,100.0,100.0,0.0,200.0,0.0,0.0,200.0,0.0,0.0,200.0,0.0,200.0,200.0,200.0,0.0,100.0,100.0,0.0,0.0,100.0,200.0,0.0,0.0,0.0,0.0,0.0,0.0,100.0,0.0,200.0,200.0,0.0,200.0,100.0,0.0,0.0,100.0,200.0,0.0,200.0,200.0,200.0,200.0,0.0,100.0,200.0,100.0,100.0,0.0,100.0,200.0,200.0,200.0,200.0,100.0,200.0,0.0,200.0,200.0,0.0,200.0,200.0,200.0,200.0,100.0,200.0,0.0,200.0,200.0,0.0,0.0,200.0,200.0,200.0,200.0,0.0,200.0,100.0,100.0,100.0,200.0,200.0,100.0,100.0,200.0,0.0,100.0,200.0,200.0,100.0,100.0,0.0,200.0,100.0,0.0,200.0,200.0,0.0,200.0,100.0,200.0,0.0,0.0,0.0,0.0,100.0,100.0,0.0,200.0,100.0,200.0,200.0,200.0,0.0,0.0,100.0,200.0,0.0,0.0,200.0,200.0,200.0,100.0,0.0,200.0,200.0,200.0,0.0,200.0,100.0,200.0,0.0,100.0,0.0,0.0,100.0,200.0,100.0,200.0,0.0,0.0,0.0,0.0,0.0,100.0,0.0,0.0,200.0,100.0,0.0,100.0,200.0,100.0,200.0,200.0,0.0,200.0,0.0,100.0,0.0,200.0,200.0,0.0,100.0,200.0,100.0,200.0,0.0,0.0,200.0,200.0,200.0,200.0,200.0,100.0,200.0,200.0,200.0,200.0,200.0,100.0,200.0,100.0,200.0,100.0,0.0,100.0,0.0,0.0,0.0,200.0,200.0,0.0,200.0,0.0,200.0,200.0,0.0,100.0,100.0,100.0,100.0,100.0,0.0,100.0,100.0,0.0,0.0,0.0,200.0,100.0,100.0,200.0,0.0,100.0,100.0,100.0,100.0,0.0,0.0,200.0,0.0,200.0,100.0,200.0,0.0,100.0,0.0,100.0,0.0,0.0,200.0,-2576434.0,126708.0
2008-02-04 16:00:00,300.0,100.0,0.0,300.0,200.0,200.0,200.0,200.0,200.0,300.0,300.0,300.0,100.0,100.0,300.0,0.0,0.0,300.0,300.0,200.0,300.0,300.0,0.0,200.0,300.0,200.0,200.0,300.0,200.0,300.0,100.0,100.0,100.0,0.0,200.0,300.0,300.0,300.0,300.0,300.0,300.0,300.0,200.0,100.0,200.0,300.0,100.0,300.0,0.0,300.0,100.0,100.0,300.0,300.0,200.0,300.0,300.0,100.0,0.0,100.0,100.0,300.0,0.0,100.0,300.0,0.0,100.0,200.0,300.0,200.0,300.0,200.0,200.0,100.0,300.0,300.0,0.0,0.0,300.0,300.0,200.0,100.0,100.0,300.0,100.0,100.0,200.0,300.0,0.0,300.0,0.0,100.0,300.0,200.0,0.0,200.0,100.0,100.0,300.0,200.0,300.0,200.0,300.0,100.0,100.0,200.0,100.0,300.0,300.0,300.0,300.0,300.0,0.0,300.0,300.0,100.0,100.0,300.0,300.0,300.0,100.0,200.0,0.0,300.0,200.0,300.0,300.0,200.0,300.0,100.0,200.0,100.0,200.0,300.0,0.0,100.0,0.0,300.0,200.0,100.0,0.0,0.0,100.0,200.0,200.0,200.0,300.0,200.0,300.0,100.0,200.0,300.0,100.0,100.0,300.0,100.0,100.0,0.0,300.0,300.0,200.0,200.0,300.0,200.0,0.0,300.0,200.0,300.0,200.0,200.0,200.0,200.0,200.0,300.0,100.0,100.0,200.0,200.0,100.0,300.0,0.0,300.0,100.0,100.0,300.0,0.0,300.0,300.0,300.0,300.0,0.0,300.0,100.0,300.0,300.0,300.0,200.0,300.0,0.0,200.0,300.0,100.0,100.0,300.0,200.0,200.0,300.0,300.0,300.0,0.0,200.0,100.0,300.0,300.0,200.0,300.0,300.0,100.0,300.0,100.0,0.0,100.0,300.0,0.0,300.0,300.0,300.0,200.0,300.0,300.0,200.0,100.0,200.0,200.0,300.0,300.0,100.0,100.0,300.0,100.0,0.0,300.0,300.0,200.0,0.0,100.0,300.0,200.0,100.0,300.0,100.0,100.0,0.0,200.0,100.0,0.0,200.0,200.0,200.0,100.0,200.0,200.0,100.0,300.0,100.0,100.0,300.0,0.0,100.0,300.0,100.0,300.0,300.0,300.0,0.0,200.0,200.0,0.0,100.0,200.0,300.0,0.0,100.0,0.0,100.0,100.0,0.0,200.0,100.0,200.0,300.0,100.0,300.0,200.0,0.0,100.0,200.0,300.0,0.0,300.0,300.0,300.0,300.0,0.0,200.0,300.0,100.0,200.0,100.0,100.0,300.0,300.0,300.0,300.0,100.0,300.0,100.0,300.0,300.0,0.0,300.0,200.0,300.0,300.0,200.0,300.0,0.0,300.0,300.0,0.0,100.0,300.0,300.0,300.0,300.0,0.0,300.0,100.0,200.0,200.0,300.0,300.0,200.0,200.0,300.0,100.0,200.0,300.0,300.0,100.0,200.0,100.0,300.0,200.0,100.0,300.0,300.0,100.0,300.0,200.0,200.0,0.0,100.0,0.0,100.0,200.0,200.0,100.0,300.0,200.0,300.0,300.0,300.0,100.0,0.0,200.0,300.0,100.0,100.0,300.0,300.0,300.0,100.0,100.0,200.0,300.0,300.0,0.0,300.0,200.0,300.0,100.0,200.0,100.0,0.0,200.0,300.0,200.0,300.0,100.0,100.0,0.0,100.0,0.0,200.0,0.0,100.0,300.0,200.0,100.0,200.0,300.0,200.0,300.0,300.0,0.0,300.0,100.0,200.0,0.0,300.0,300.0,100.0,200.0,300.0,200.0,300.0,0.0,100.0,300.0,300.0,300.0,300.0,300.0,200.0,300.0,300.0,300.0,300.0,300.0,200.0,300.0,200.0,300.0,100.0,0.0,100.0,0.0,100.0,100.0,300.0,300.0,0.0,300.0,100.0,300.0,300.0,100.0,100.0,200.0,200.0,200.0,200.0,100.0,100.0,200.0,100.0,0.0,100.0,300.0,200.0,100.0,300.0,100.0,200.0,200.0,200.0,200.0,100.0,100.0,300.0,100.0,300.0,200.0,300.0,0.0,200.0,0.0,200.0,0.0,0.0,300.0,-4409878.0,112298.0
2008-02-05 16:00:00,400.0,200.0,0.0,400.0,300.0,300.0,300.0,300.0,300.0,400.0,400.0,400.0,200.0,200.0,400.0,0.0,0.0,400.0,400.0,300.0,400.0,400.0,0.0,300.0,400.0,300.0,300.0,400.0,300.0,400.0,100.0,200.0,200.0,100.0,300.0,400.0,400.0,400.0,400.0,400.0,400.0,400.0,300.0,200.0,300.0,400.0,200.0,400.0,100.0,400.0,200.0,200.0,400.0,400.0,300.0,400.0,400.0,200.0,0.0,200.0,200.0,400.0,100.0,200.0,400.0,100.0,200.0,300.0,400.0,200.0,400.0,300.0,300.0,200.0,400.0,400.0,0.0,100.0,400.0,400.0,300.0,200.0,200.0,400.0,200.0,200.0,200.0,400.0,0.0,400.0,100.0,200.0,400.0,300.0,100.0,300.0,200.0,200.0,400.0,300.0,400.0,300.0,400.0,200.0,200.0,300.0,200.0,400.0,400.0,400.0,400.0,400.0,0.0,300.0,300.0,200.0,200.0,400.0,400.0,400.0,100.0,200.0,100.0,400.0,300.0,400.0,400.0,200.0,400.0,200.0,300.0,200.0,300.0,400.0,100.0,200.0,100.0,400.0,300.0,200.0,100.0,0.0,200.0,300.0,300.0,300.0,400.0,300.0,400.0,100.0,300.0,400.0,200.0,200.0,400.0,200.0,200.0,100.0,400.0,400.0,300.0,300.0,400.0,300.0,100.0,400.0,300.0,400.0,300.0,300.0,300.0,300.0,300.0,400.0,200.0,200.0,300.0,300.0,200.0,400.0,100.0,400.0,200.0,200.0,400.0,100.0,400.0,400.0,300.0,400.0,0.0,400.0,200.0,400.0,400.0,400.0,300.0,400.0,100.0,300.0,400.0,100.0,200.0,400.0,300.0,300.0,400.0,400.0,400.0,100.0,300.0,200.0,400.0,400.0,300.0,400.0,400.0,200.0,400.0,200.0,0.0,200.0,400.0,100.0,400.0,400.0,400.0,300.0,400.0,400.0,300.0,200.0,300.0,300.0,400.0,400.0,200.0,200.0,400.0,200.0,0.0,400.0,400.0,300.0,100.0,200.0,400.0,300.0,200.0,400.0,200.0,200.0,100.0,300.0,200.0,0.0,300.0,300.0,300.0,200.0,300.0,300.0,200.0,400.0,200.0,200.0,400.0,0.0,200.0,400.0,200.0,400.0,400.0,400.0,0.0,300.0,300.0,100.0,200.0,300.0,400.0,100.0,200.0,100.0,200.0,200.0,100.0,300.0,200.0,300.0,400.0,200.0,400.0,300.0,0.0,200.0,300.0,400.0,100.0,400.0,400.0,400.0,400.0,0.0,300.0,400.0,100.0,300.0,200.0,100.0,400.0,400.0,400.0,400.0,200.0,400.0,200.0,400.0,300.0,100.0,400.0,300.0,400.0,400.0,300.0,400.0,100.0,400.0,400.0,100.0,200.0,400.0,400.0,300.0,400.0,0.0,400.0,200.0,200.0,300.0,400.0,400.0,300.0,300.0,400.0,200.0,300.0,400.0,400.0,200.0,300.0,200.0,400.0,300.0,200.0,400.0,400.0,200.0,400.0,300.0,300.0,0.0,200.0,100.0,200.0,300.0,300.0,200.0,400.0,300.0,400.0,400.0,400.0,200.0,0.0,300.0,400.0,200.0,200.0,400.0,400.0,400.0,200.0,200.0,300.0,400.0,400.0,100.0,400.0,300.0,400.0,200.0,300.0,200.0,100.0,300.0,400.0,300.0,400.0,200.0,200.0,0.0,200.0,0.0,300.0,100.0,200.0,400.0,300.0,200.0,300.0,400.0,300.0,400.0,400.0,100.0,400.0,200.0,300.0,100.0,400.0,400.0,200.0,300.0,400.0,300.0,400.0,100.0,200.0,400.0,400.0,400.0,400.0,400.0,300.0,400.0,400.0,400.0,400.0,400.0,300.0,400.0,300.0,400.0,100.0,0.0,200.0,100.0,200.0,200.0,400.0,400.0,0.0,400.0,200.0,400.0,400.0,200.0,200.0,300.0,300.0,300.0,300.0,200.0,100.0,300.0,200.0,100.0,100.0,400.0,300.0,200.0,400.0,200.0,300.0,300.0,300.0,300.0,200.0,100.0,400.0,200.0,400.0,300.0,400.0,0.0,300.0,0.0,300.0,100.0,100.0,400.0,-6427634.0,-40807.0
2008-02-06 16:00:00,500.0,300.0,0.0,500.0,400.0,400.0,400.0,300.0,400.0,500.0,400.0,400.0,300.0,300.0,500.0,0.0,0.0,500.0,400.0,400.0,500.0,500.0,0.0,400.0,500.0,400.0,400.0,500.0,400.0,500.0,100.0,300.0,300.0,200.0,300.0,500.0,500.0,500.0,400.0,500.0,500.0,500.0,400.0,300.0,400.0,500.0,300.0,500.0,200.0,400.0,300.0,300.0,500.0,500.0,400.0,500.0,500.0,200.0,0.0,300.0,300.0,500.0,200.0,300.0,500.0,200.0,300.0,300.0,500.0,300.0,500.0,400.0,400.0,300.0,400.0,500.0,0.0,200.0,500.0,500.0,400.0,300.0,200.0,500.0,300.0,300.0,200.0,500.0,0.0,500.0,200.0,200.0,500.0,400.0,200.0,300.0,300.0,300.0,500.0,300.0,500.0,400.0,500.0,300.0,300.0,400.0,300.0,500.0,500.0,500.0,500.0,500.0,100.0,300.0,300.0,300.0,300.0,500.0,500.0,500.0,200.0,300.0,200.0,400.0,400.0,500.0,500.0,200.0,500.0,300.0,400.0,300.0,300.0,400.0,100.0,300.0,200.0,500.0,300.0,300.0,200.0,0.0,300.0,400.0,400.0,400.0,400.0,300.0,500.0,100.0,400.0,500.0,300.0,300.0,500.0,300.0,200.0,200.0,500.0,500.0,400.0,400.0,400.0,400.0,200.0,500.0,300.0,500.0,400.0,400.0,300.0,400.0,400.0,500.0,300.0,300.0,400.0,400.0,300.0,500.0,200.0,500.0,300.0,300.0,400.0,200.0,500.0,500.0,300.0,500.0,0.0,500.0,300.0,500.0,500.0,500.0,400.0,500.0,200.0,300.0,500.0,100.0,300.0,500.0,300.0,400.0,500.0,500.0,500.0,200.0,400.0,300.0,500.0,400.0,400.0,400.0,500.0,200.0,500.0,300.0,100.0,300.0,400.0,200.0,500.0,500.0,500.0,400.0,400.0,400.0,400.0,200.0,300.0,400.0,500.0,500.0,300.0,300.0,500.0,300.0,100.0,500.0,500.0,400.0,200.0,300.0,400.0,300.0,200.0,400.0,300.0,300.0,200.0,400.0,300.0,0.0,400.0,300.0,400.0,300.0,300.0,400.0,300.0,500.0,300.0,300.0,400.0,0.0,300.0,500.0,300.0,500.0,500.0,400.0,0.0,400.0,400.0,200.0,300.0,400.0,500.0,200.0,300.0,200.0,300.0,300.0,200.0,400.0,300.0,300.0,400.0,300.0,500.0,400.0,0.0,200.0,400.0,500.0,100.0,400.0,500.0,500.0,500.0,0.0,300.0,400.0,100.0,400.0,300.0,200.0,500.0,400.0,500.0,500.0,200.0,500.0,300.0,500.0,300.0,100.0,500.0,400.0,500.0,500.0,400.0,500.0,200.0,500.0,400.0,100.0,300.0,500.0,500.0,300.0,400.0,100.0,500.0,300.0,200.0,400.0,500.0,500.0,400.0,400.0,400.0,200.0,400.0,500.0,500.0,300.0,300.0,200.0,500.0,300.0,300.0,500.0,500.0,300.0,500.0,300.0,400.0,0.0,300.0,100.0,300.0,400.0,400.0,300.0,400.0,400.0,500.0,500.0,500.0,300.0,0.0,400.0,500.0,300.0,300.0,500.0,500.0,400.0,300.0,300.0,400.0,500.0,400.0,200.0,500.0,400.0,400.0,300.0,300.0,300.0,200.0,400.0,500.0,300.0,500.0,300.0,300.0,0.0,300.0,0.0,400.0,200.0,300.0,500.0,400.0,300.0,300.0,500.0,400.0,400.0,500.0,200.0,500.0,200.0,300.0,200.0,500.0,500.0,200.0,400.0,500.0,400.0,400.0,200.0,300.0,500.0,500.0,500.0,500.0,500.0,300.0,500.0,500.0,500.0,400.0,500.0,300.0,500.0,400.0,500.0,100.0,0.0,300.0,200.0,300.0,300.0,500.0,500.0,0.0,500.0,300.0,500.0,500.0,300.0,300.0,400.0,400.0,300.0,400.0,300.0,200.0,400.0,300.0,200.0,100.0,500.0,400.0,300.0,500.0,300.0,400.0,300.0,400.0,400.0,300.0,200.0,400.0,300.0,500.0,400.0,400.0,0.0,400.0,0.0,400.0,200.0,200.0,500.0,-7979511.0,-97707.0
2008-02-07 16:00:00,500.0,300.0,0.0,500.0,500.0,500.0,400.0,200.0,400.0,400.0,300.0,300.0,400.0,400.0,500.0,100.0,0.0,500.0,300.0,400.0,500.0,400.0,0.0,400.0,500.0,400.0,400.0,500.0,400.0,500.0,100.0,400.0,400.0,300.0,300.0,500.0,500.0,500.0,300.0,400.0,500.0,500.0,400.0,300.0,400.0,500.0,400.0,500.0,300.0,300.0,400.0,400.0,500.0,500.0,500.0,400.0,500.0,300.0,0.0,400.0,300.0,500.0,300.0,400.0,500.0,300.0,400.0,200.0,500.0,300.0,500.0,400.0,400.0,300.0,400.0,500.0,0.0,300.0,500.0,400.0,400.0,300.0,300.0,500.0,400.0,300.0,100.0,500.0,0.0,500.0,300.0,300.0,500.0,500.0,300.0,300.0,400.0,400.0,400.0,300.0,500.0,500.0,500.0,300.0,400.0,400.0,400.0,500.0,400.0,400.0,500.0,500.0,100.0,200.0,200.0,400.0,400.0,500.0,500.0,500.0,100.0,400.0,300.0,300.0,500.0,500.0,500.0,100.0,500.0,400.0,400.0,400.0,300.0,300.0,100.0,400.0,300.0,500.0,200.0,300.0,300.0,0.0,400.0,500.0,400.0,500.0,300.0,400.0,500.0,100.0,500.0,500.0,400.0,400.0,500.0,200.0,200.0,300.0,500.0,500.0,400.0,400.0,300.0,500.0,300.0,400.0,300.0,400.0,500.0,500.0,400.0,400.0,400.0,500.0,400.0,400.0,500.0,400.0,400.0,500.0,300.0,500.0,400.0,300.0,300.0,200.0,500.0,500.0,300.0,500.0,0.0,500.0,300.0,500.0,500.0,500.0,500.0,500.0,300.0,300.0,500.0,100.0,200.0,400.0,200.0,300.0,500.0,500.0,500.0,300.0,400.0,400.0,400.0,300.0,500.0,300.0,400.0,200.0,400.0,300.0,200.0,300.0,300.0,300.0,500.0,500.0,500.0,400.0,300.0,300.0,400.0,200.0,400.0,300.0,500.0,400.0,400.0,400.0,500.0,300.0,200.0,500.0,500.0,500.0,300.0,400.0,300.0,300.0,300.0,300.0,300.0,400.0,300.0,400.0,400.0,0.0,400.0,200.0,500.0,400.0,300.0,500.0,400.0,400.0,400.0,400.0,300.0,100.0,400.0,400.0,400.0,500.0,500.0,400.0,0.0,500.0,300.0,300.0,400.0,400.0,400.0,300.0,400.0,300.0,400.0,400.0,300.0,500.0,400.0,200.0,300.0,400.0,500.0,400.0,0.0,300.0,400.0,500.0,100.0,300.0,500.0,500.0,500.0,0.0,200.0,300.0,100.0,500.0,400.0,200.0,500.0,300.0,400.0,500.0,100.0,400.0,300.0,500.0,200.0,100.0,500.0,400.0,500.0,400.0,300.0,500.0,300.0,400.0,300.0,100.0,400.0,500.0,500.0,200.0,300.0,200.0,500.0,300.0,200.0,400.0,400.0,400.0,400.0,400.0,300.0,200.0,400.0,400.0,500.0,300.0,300.0,200.0,500.0,300.0,400.0,500.0,500.0,400.0,500.0,300.0,400.0,0.0,400.0,100.0,400.0,400.0,400.0,400.0,300.0,400.0,500.0,500.0,500.0,400.0,0.0,400.0,500.0,400.0,400.0,500.0,500.0,300.0,300.0,400.0,300.0,500.0,400.0,300.0,500.0,400.0,300.0,400.0,300.0,400.0,300.0,500.0,500.0,400.0,500.0,300.0,400.0,100.0,400.0,0.0,500.0,300.0,400.0,400.0,500.0,400.0,400.0,500.0,500.0,300.0,500.0,300.0,500.0,200.0,400.0,300.0,500.0,500.0,300.0,500.0,500.0,500.0,300.0,300.0,400.0,500.0,500.0,500.0,500.0,500.0,400.0,500.0,500.0,500.0,300.0,500.0,200.0,500.0,400.0,500.0,100.0,0.0,300.0,300.0,400.0,400.0,500.0,500.0,0.0,400.0,300.0,500.0,500.0,400.0,300.0,300.0,300.0,300.0,400.0,400.0,200.0,500.0,400.0,300.0,100.0,400.0,500.0,300.0,500.0,400.0,500.0,400.0,400.0,400.0,400.0,200.0,300.0,400.0,500.0,400.0,300.0,0.0,400.0,0.0,400.0,300.0,300.0,500.0,-8233486.0,-26365.0
2008-02-08 16:00:00,400.0,400.0,0.0,400.0,500.0,500.0,400.0,100.0,500.0,400.0,200.0,200.0,500.0,500.0,500.0,100.0,100.0,500.0,200.0,500.0,400.0,300.0,0.0,500.0,500.0,500.0,500.0,500.0,500.0,500.0,0.0,500.0,500.0,400.0,300.0,500.0,500.0,500.0,200.0,300.0,500.0,500.0,500.0,300.0,500.0,500.0,500.0,500.0,400.0,300.0,500.0,500.0,500.0,500.0,500.0,300.0,500.0,400.0,0.0,500.0,400.0,500.0,400.0,500.0,500.0,400.0,500.0,200.0,500.0,300.0,500.0,500.0,500.0,400.0,400.0,500.0,0.0,400.0,500.0,400.0,500.0,400.0,400.0,400.0,500.0,300.0,0.0,500.0,0.0,500.0,400.0,300.0,500.0,500.0,300.0,200.0,500.0,500.0,300.0,200.0,500.0,500.0,500.0,400.0,500.0,400.0,500.0,500.0,400.0,400.0,500.0,500.0,100.0,200.0,100.0,500.0,400.0,500.0,400.0,500.0,200.0,400.0,300.0,200.0,500.0,500.0,500.0,100.0,500.0,500.0,500.0,500.0,200.0,200.0,100.0,500.0,400.0,500.0,200.0,400.0,400.0,0.0,500.0,400.0,500.0,500.0,200.0,400.0,400.0,100.0,500.0,500.0,500.0,500.0,500.0,300.0,200.0,400.0,500.0,400.0,500.0,400.0,200.0,500.0,300.0,400.0,300.0,300.0,500.0,500.0,400.0,500.0,500.0,500.0,500.0,500.0,500.0,500.0,500.0,500.0,400.0,500.0,500.0,300.0,200.0,300.0,500.0,400.0,300.0,400.0,0.0,500.0,300.0,500.0,500.0,500.0,500.0,500.0,400.0,200.0,500.0,0.0,300.0,300.0,300.0,400.0,500.0,500.0,500.0,400.0,500.0,500.0,400.0,300.0,500.0,300.0,300.0,200.0,400.0,400.0,300.0,300.0,200.0,400.0,500.0,500.0,500.0,500.0,200.0,200.0,500.0,200.0,400.0,400.0,500.0,300.0,500.0,500.0,500.0,400.0,300.0,500.0,500.0,500.0,400.0,500.0,300.0,200.0,400.0,200.0,400.0,500.0,400.0,500.0,500.0,100.0,500.0,200.0,500.0,500.0,300.0,500.0,500.0,300.0,500.0,500.0,200.0,200.0,500.0,400.0,500.0,500.0,500.0,400.0,0.0,500.0,300.0,400.0,500.0,500.0,300.0,400.0,500.0,400.0,500.0,500.0,400.0,400.0,500.0,100.0,300.0,500.0,500.0,500.0,0.0,400.0,500.0,500.0,200.0,300.0,400.0,400.0,500.0,0.0,200.0,200.0,0.0,500.0,500.0,300.0,500.0,200.0,300.0,500.0,100.0,300.0,400.0,500.0,100.0,100.0,500.0,400.0,500.0,400.0,300.0,500.0,400.0,400.0,300.0,100.0,400.0,500.0,500.0,200.0,200.0,200.0,500.0,400.0,100.0,500.0,400.0,300.0,500.0,500.0,300.0,200.0,500.0,400.0,500.0,400.0,300.0,300.0,500.0,200.0,500.0,500.0,500.0,500.0,500.0,300.0,400.0,0.0,500.0,100.0,500.0,500.0,400.0,400.0,200.0,500.0,500.0,500.0,500.0,500.0,0.0,500.0,500.0,500.0,500.0,500.0,500.0,200.0,400.0,500.0,200.0,500.0,400.0,400.0,500.0,300.0,200.0,500.0,200.0,500.0,400.0,500.0,500.0,400.0,500.0,400.0,500.0,200.0,500.0,0.0,500.0,400.0,500.0,400.0,500.0,500.0,400.0,500.0,500.0,300.0,500.0,400.0,500.0,300.0,400.0,400.0,500.0,500.0,400.0,500.0,500.0,500.0,300.0,400.0,500.0,500.0,500.0,500.0,500.0,500.0,400.0,500.0,500.0,500.0,300.0,500.0,200.0,500.0,400.0,500.0,200.0,0.0,400.0,400.0,500.0,400.0,500.0,500.0,0.0,400.0,400.0,500.0,500.0,500.0,400.0,400.0,400.0,200.0,500.0,500.0,300.0,500.0,500.0,400.0,200.0,300.0,500.0,400.0,500.0,500.0,500.0,400.0,500.0,500.0,500.0,300.0,200.0,500.0,500.0,500.0,200.0,100.0,500.0,100.0,500.0,400.0,400.0,500.0,-8534954.0,-48439.0
2008-02-11 16:00:00,300.0,500.0,100.0,300.0,500.0,400.0,400.0,100.0,500.0,400.0,100.0,100.0,500.0,500.0,500.0,100.0,200.0,400.0,100.0,500.0,300.0,200.0,0.0,500.0,500.0,500.0,400.0,500.0,500.0,500.0,100.0,500.0,500.0,500.0,200.0,500.0,500.0,500.0,100.0,300.0,500.0,400.0,500.0,300.0,500.0,500.0,500.0,500.0,500.0,300.0,500.0,500.0,500.0,500.0,500.0,200.0,500.0,400.0,0.0,400.0,500.0,500.0,500.0,500.0,500.0,500.0,500.0,100.0,500.0,400.0,500.0,400.0,500.0,500.0,300.0,500.0,0.0,500.0,500.0,400.0,500.0,500.0,400.0,400.0,500.0,300.0,0.0,500.0,0.0,400.0,500.0,200.0,500.0,500.0,300.0,100.0,500.0,400.0,200.0,100.0,500.0,500.0,500.0,400.0,500.0,300.0,500.0,500.0,400.0,300.0,500.0,400.0,200.0,100.0,100.0,500.0,300.0,500.0,300.0,500.0,300.0,300.0,300.0,100.0,500.0,500.0,500.0,0.0,500.0,500.0,500.0,500.0,100.0,100.0,100.0,500.0,500.0,500.0,100.0,500.0,500.0,0.0,500.0,400.0,500.0,500.0,100.0,400.0,300.0,0.0,500.0,500.0,500.0,500.0,500.0,400.0,100.0,500.0,500.0,300.0,500.0,400.0,100.0,500.0,400.0,400.0,300.0,200.0,500.0,500.0,400.0,500.0,500.0,500.0,500.0,500.0,500.0,500.0,500.0,500.0,500.0,500.0,500.0,300.0,100.0,300.0,400.0,400.0,300.0,400.0,100.0,500.0,400.0,400.0,500.0,400.0,500.0,500.0,500.0,200.0,500.0,100.0,400.0,200.0,200.0,300.0,500.0,500.0,500.0,500.0,500.0,500.0,300.0,300.0,500.0,300.0,200.0,100.0,300.0,500.0,400.0,300.0,100.0,500.0,500.0,500.0,500.0,500.0,100.0,100.0,500.0,300.0,400.0,300.0,500.0,300.0,400.0,500.0,400.0,500.0,400.0,500.0,500.0,500.0,500.0,400.0,200.0,200.0,300.0,200.0,500.0,500.0,500.0,500.0,500.0,100.0,500.0,200.0,500.0,500.0,300.0,500.0,400.0,200.0,500.0,500.0,100.0,300.0,500.0,400.0,400.0,400.0,500.0,400.0,0.0,500.0,300.0,500.0,500.0,400.0,200.0,500.0,500.0,500.0,500.0,500.0,500.0,300.0,500.0,100.0,300.0,500.0,500.0,500.0,0.0,300.0,400.0,500.0,200.0,200.0,300.0,400.0,500.0,0.0,200.0,100.0,0.0,500.0,500.0,400.0,500.0,100.0,200.0,500.0,100.0,300.0,400.0,500.0,100.0,100.0,500.0,500.0,500.0,400.0,200.0,500.0,500.0,400.0,300.0,100.0,300.0,500.0,400.0,200.0,100.0,200.0,500.0,500.0,0.0,500.0,400.0,200.0,500.0,500.0,200.0,100.0,500.0,400.0,500.0,500.0,300.0,300.0,400.0,100.0,500.0,500.0,500.0,500.0,500.0,300.0,400.0,0.0,500.0,100.0,500.0,500.0,300.0,300.0,100.0,500.0,500.0,500.0,500.0,500.0,100.0,500.0,500.0,500.0,500.0,500.0,500.0,100.0,500.0,500.0,200.0,500.0,400.0,400.0,500.0,200.0,100.0,500.0,100.0,500.0,500.0,500.0,500.0,400.0,500.0,400.0,500.0,300.0,500.0,0.0,400.0,500.0,500.0,400.0,500.0,500.0,300.0,500.0,500.0,200.0,500.0,500.0,400.0,300.0,400.0,500.0,500.0,500.0,400.0,400.0,500.0,500.0,200.0,500.0,500.0,400.0,500.0,500.0,500.0,500.0,300.0,500.0,500.0,500.0,300.0,500.0,100.0,500.0,400.0,500.0,300.0,0.0,500.0,500.0,500.0,300.0,500.0,500.0,0.0,400.0,300.0,500.0,500.0,500.0,500.0,300.0,300.0,100.0,400.0,500.0,400.0,500.0,500.0,400.0,200.0,300.0,500.0,500.0,500.0,500.0,500.0,400.0,500.0,400.0,500.0,300.0,100.0,500.0,500.0,500.0,100.0,200.0,500.0,200.0,500.0,500.0,500.0,500.0,-8367758.0,7500.0
2008-02-12 16:00:00,200.0,500.0,200.0,200.0,500.0,300.0,300.0,100.0,500.0,400.0,0.0,0.0,500.0,500.0,500.0,100.0,200.0,300.0,0.0,500.0,200.0,100.0,0.0,500.0,400.0,500.0,300.0,500.0,500.0,400.0,200.0,500.0,500.0,500.0,100.0,400.0,500.0,500.0,100.0,200.0,500.0,300.0,500.0,200.0,500.0,500.0,500.0,400.0,500.0,300.0,500.0,500.0,500.0,500.0,500.0,100.0,500.0,400.0,0.0,300.0,500.0,500.0,400.0,500.0,500.0,500.0,500.0,100.0,500.0,500.0,500.0,300.0,500.0,500.0,300.0,500.0,100.0,500.0,500.0,400.0,500.0,500.0,400.0,400.0,500.0,300.0,0.0,500.0,0.0,300.0,500.0,100.0,500.0,500.0,200.0,0.0,500.0,300.0,100.0,0.0,500.0,500.0,400.0,400.0,500.0,200.0,500.0,500.0,400.0,300.0,500.0,300.0,300.0,200.0,200.0,500.0,200.0,500.0,200.0,500.0,400.0,300.0,200.0,100.0,500.0,400.0,500.0,100.0,500.0,500.0,500.0,500.0,100.0,0.0,0.0,500.0,500.0,400.0,0.0,500.0,500.0,0.0,400.0,400.0,500.0,500.0,0.0,400.0,200.0,100.0,500.0,500.0,500.0,500.0,500.0,400.0,100.0,500.0,500.0,200.0,500.0,400.0,100.0,400.0,400.0,400.0,300.0,100.0,500.0,500.0,400.0,500.0,500.0,500.0,500.0,500.0,500.0,500.0,500.0,500.0,500.0,500.0,500.0,300.0,100.0,200.0,400.0,400.0,400.0,400.0,200.0,500.0,400.0,300.0,500.0,400.0,500.0,500.0,500.0,200.0,500.0,200.0,400.0,100.0,100.0,300.0,500.0,500.0,500.0,400.0,500.0,500.0,200.0,200.0,500.0,300.0,100.0,100.0,300.0,500.0,500.0,200.0,100.0,500.0,400.0,500.0,500.0,500.0,0.0,0.0,500.0,300.0,400.0,200.0,500.0,300.0,300.0,500.0,300.0,500.0,500.0,500.0,400.0,500.0,500.0,400.0,100.0,200.0,200.0,200.0,500.0,500.0,500.0,400.0,500.0,200.0,500.0,200.0,500.0,500.0,300.0,500.0,300.0,100.0,500.0,500.0,0.0,400.0,500.0,400.0,300.0,400.0,500.0,300.0,0.0,500.0,300.0,500.0,500.0,300.0,200.0,500.0,500.0,500.0,500.0,500.0,500.0,200.0,500.0,0.0,200.0,400.0,400.0,500.0,0.0,300.0,300.0,500.0,100.0,100.0,300.0,400.0,500.0,100.0,200.0,0.0,0.0,500.0,500.0,500.0,500.0,100.0,100.0,500.0,0.0,300.0,400.0,500.0,200.0,100.0,500.0,500.0,500.0,400.0,200.0,500.0,500.0,400.0,300.0,100.0,300.0,500.0,300.0,300.0,0.0,300.0,500.0,400.0,0.0,500.0,400.0,200.0,500.0,500.0,200.0,0.0,400.0,400.0,500.0,400.0,300.0,300.0,300.0,0.0,500.0,500.0,500.0,500.0,500.0,200.0,400.0,0.0,500.0,0.0,500.0,500.0,300.0,300.0,0.0,400.0,500.0,500.0,500.0,500.0,200.0,500.0,400.0,500.0,500.0,500.0,400.0,0.0,500.0,500.0,100.0,500.0,400.0,400.0,500.0,100.0,100.0,500.0,0.0,500.0,500.0,500.0,500.0,400.0,500.0,400.0,500.0,400.0,500.0,0.0,300.0,500.0,500.0,300.0,500.0,500.0,200.0,500.0,400.0,200.0,500.0,500.0,300.0,300.0,400.0,500.0,500.0,500.0,300.0,300.0,500.0,500.0,100.0,500.0,500.0,300.0,500.0,500.0,500.0,500.0,200.0,500.0,400.0,500.0,300.0,500.0,100.0,400.0,400.0,500.0,400.0,0.0,500.0,500.0,500.0,300.0,500.0,500.0,0.0,400.0,300.0,500.0,500.0,500.0,500.0,200.0,200.0,100.0,300.0,500.0,500.0,500.0,500.0,300.0,300.0,300.0,400.0,500.0,400.0,500.0,400.0,400.0,500.0,400.0,500.0,400.0,100.0,500.0,400.0,500.0,100.0,300.0,500.0,300.0,500.0,500.0,500.0,500.0,-7974839.0,50510.0
2008-02-13 16:00:00,100.0,400.0,300.0,100.0,400.0,200.0,200.0,200.0,500.0,400.0,100.0,0.0,500.0,500.0,500.0,100.0,300.0,300.0,0.0,500.0,100.0,0.0,0.0,500.0,300.0,400.0,200.0,500.0,500.0,300.0,300.0,500.0,500.0,500.0,100.0,300.0,500.0,500.0,100.0,200.0,500.0,200.0,500.0,100.0,500.0,500.0,500.0,300.0,500.0,400.0,500.0,500.0,500.0,500.0,500.0,0.0,500.0,500.0,100.0,300.0,400.0,400.0,400.0,500.0,500.0,500.0,500.0,100.0,400.0,500.0,500.0,300.0,500.0,500.0,400.0,500.0,200.0,500.0,500.0,400.0,500.0,500.0,500.0,400.0,500.0,300.0,100.0,400.0,0.0,200.0,500.0,100.0,500.0,500.0,100.0,0.0,500.0,300.0,0.0,0.0,400.0,500.0,400.0,400.0,500.0,100.0,500.0,500.0,400.0,300.0,500.0,300.0,200.0,200.0,300.0,500.0,100.0,500.0,100.0,400.0,400.0,300.0,100.0,200.0,500.0,300.0,500.0,200.0,500.0,500.0,500.0,500.0,200.0,0.0,0.0,500.0,500.0,300.0,0.0,400.0,500.0,0.0,300.0,400.0,400.0,500.0,0.0,500.0,100.0,200.0,500.0,500.0,500.0,500.0,500.0,400.0,200.0,500.0,400.0,100.0,500.0,400.0,200.0,300.0,400.0,400.0,400.0,0.0,500.0,400.0,400.0,500.0,500.0,400.0,500.0,500.0,500.0,500.0,500.0,500.0,500.0,400.0,500.0,200.0,200.0,100.0,400.0,300.0,500.0,300.0,300.0,400.0,400.0,200.0,500.0,400.0,500.0,500.0,500.0,200.0,500.0,300.0,400.0,0.0,100.0,300.0,500.0,400.0,500.0,300.0,500.0,500.0,100.0,200.0,500.0,400.0,0.0,200.0,300.0,500.0,500.0,100.0,200.0,500.0,400.0,500.0,500.0,500.0,100.0,0.0,400.0,400.0,500.0,100.0,500.0,200.0,200.0,500.0,200.0,500.0,500.0,500.0,400.0,400.0,500.0,400.0,100.0,300.0,300.0,300.0,500.0,500.0,500.0,300.0,500.0,300.0,500.0,300.0,500.0,500.0,400.0,400.0,300.0,0.0,500.0,500.0,0.0,500.0,500.0,400.0,300.0,400.0,500.0,400.0,0.0,500.0,200.0,500.0,500.0,300.0,100.0,500.0,500.0,500.0,500.0,400.0,500.0,100.0,500.0,0.0,200.0,300.0,400.0,500.0,0.0,400.0,200.0,400.0,200.0,100.0,300.0,400.0,500.0,200.0,300.0,0.0,0.0,500.0,500.0,500.0,400.0,200.0,0.0,400.0,0.0,300.0,300.0,500.0,200.0,200.0,500.0,500.0,400.0,400.0,200.0,500.0,500.0,400.0,400.0,200.0,200.0,400.0,300.0,400.0,0.0,300.0,500.0,300.0,0.0,500.0,400.0,100.0,500.0,400.0,300.0,100.0,400.0,400.0,400.0,400.0,400.0,400.0,300.0,100.0,500.0,500.0,500.0,500.0,500.0,300.0,300.0,0.0,500.0,100.0,500.0,500.0,300.0,300.0,0.0,400.0,500.0,500.0,400.0,500.0,300.0,500.0,300.0,500.0,500.0,500.0,300.0,0.0,500.0,500.0,0.0,500.0,400.0,400.0,500.0,100.0,200.0,500.0,0.0,500.0,500.0,500.0,500.0,400.0,500.0,300.0,500.0,500.0,500.0,0.0,300.0,500.0,500.0,200.0,500.0,500.0,200.0,500.0,300.0,300.0,500.0,500.0,200.0,400.0,400.0,500.0,400.0,400.0,300.0,200.0,500.0,500.0,100.0,500.0,500.0,200.0,500.0,500.0,500.0,500.0,200.0,500.0,400.0,500.0,400.0,500.0,200.0,300.0,400.0,500.0,500.0,0.0,500.0,500.0,500.0,300.0,500.0,500.0,0.0,400.0,300.0,400.0,500.0,500.0,500.0,100.0,200.0,200.0,300.0,500.0,400.0,500.0,500.0,300.0,400.0,200.0,400.0,400.0,300.0,500.0,400.0,500.0,500.0,300.0,500.0,400.0,200.0,500.0,300.0,500.0,200.0,400.0,500.0,400.0,500.0,500.0,500.0,500.0,-7931501.0,164404.0
2008-02-14 16:00:00,100.0,400.0,400.0,0.0,400.0,100.0,100.0,300.0,500.0,500.0,200.0,0.0,500.0,500.0,500.0,0.0,400.0,300.0,0.0,500.0,0.0,100.0,100.0,500.0,200.0,300.0,200.0,500.0,500.0,300.0,400.0,500.0,500.0,500.0,100.0,200.0,500.0,500.0,200.0,300.0,500.0,100.0,500.0,200.0,500.0,500.0,500.0,200.0,500.0,500.0,500.0,500.0,500.0,500.0,400.0,100.0,500.0,400.0,200.0,300.0,400.0,400.0,400.0,500.0,500.0,500.0,500.0,100.0,300.0,500.0,500.0,300.0,500.0,500.0,400.0,500.0,300.0,500.0,500.0,500.0,500.0,500.0,500.0,400.0,500.0,400.0,100.0,400.0,0.0,100.0,500.0,0.0,500.0,500.0,0.0,100.0,500.0,200.0,100.0,0.0,400.0,500.0,400.0,400.0,500.0,100.0,500.0,500.0,500.0,400.0,500.0,300.0,300.0,300.0,400.0,500.0,100.0,400.0,0.0,300.0,400.0,200.0,100.0,300.0,500.0,300.0,500.0,300.0,400.0,500.0,500.0,500.0,300.0,100.0,100.0,500.0,500.0,200.0,100.0,400.0,500.0,0.0,300.0,400.0,300.0,500.0,100.0,500.0,0.0,300.0,500.0,500.0,500.0,500.0,500.0,500.0,300.0,500.0,400.0,0.0,500.0,400.0,300.0,200.0,400.0,500.0,500.0,0.0,500.0,300.0,300.0,500.0,500.0,400.0,500.0,500.0,500.0,500.0,500.0,500.0,500.0,400.0,500.0,200.0,300.0,200.0,300.0,300.0,500.0,200.0,400.0,300.0,400.0,100.0,500.0,400.0,500.0,500.0,500.0,200.0,500.0,400.0,500.0,100.0,100.0,300.0,500.0,300.0,500.0,300.0,500.0,500.0,200.0,300.0,500.0,500.0,0.0,300.0,400.0,500.0,500.0,100.0,300.0,500.0,400.0,500.0,500.0,500.0,200.0,0.0,400.0,500.0,500.0,100.0,500.0,300.0,200.0,500.0,200.0,500.0,500.0,500.0,400.0,400.0,500.0,400.0,200.0,400.0,300.0,400.0,500.0,500.0,500.0,200.0,500.0,400.0,500.0,400.0,500.0,500.0,500.0,400.0,300.0,0.0,500.0,500.0,100.0,500.0,500.0,500.0,300.0,400.0,500.0,400.0,0.0,500.0,300.0,500.0,500.0,300.0,200.0,500.0,500.0,500.0,500.0,300.0,500.0,100.0,500.0,0.0,200.0,300.0,400.0,500.0,0.0,400.0,100.0,400.0,300.0,100.0,300.0,400.0,400.0,300.0,400.0,0.0,0.0,500.0,500.0,500.0,300.0,300.0,0.0,300.0,100.0,400.0,300.0,500.0,200.0,300.0,500.0,500.0,400.0,500.0,300.0,500.0,500.0,500.0,500.0,300.0,100.0,400.0,300.0,500.0,0.0,300.0,500.0,300.0,100.0,500.0,400.0,100.0,500.0,400.0,400.0,200.0,400.0,500.0,400.0,400.0,500.0,500.0,300.0,200.0,500.0,500.0,500.0,500.0,500.0,400.0,300.0,0.0,500.0,100.0,500.0,500.0,400.0,300.0,0.0,400.0,500.0,500.0,400.0,500.0,400.0,500.0,200.0,500.0,500.0,500.0,300.0,0.0,500.0,500.0,100.0,500.0,300.0,400.0,500.0,200.0,300.0,500.0,100.0,500.0,500.0,500.0,500.0,300.0,500.0,300.0,500.0,500.0,500.0,0.0,300.0,500.0,500.0,300.0,500.0,500.0,100.0,500.0,300.0,400.0,500.0,500.0,100.0,500.0,400.0,500.0,400.0,400.0,200.0,200.0,500.0,500.0,200.0,500.0,500.0,100.0,500.0,500.0,500.0,500.0,200.0,500.0,400.0,500.0,500.0,500.0,300.0,200.0,400.0,500.0,500.0,0.0,500.0,500.0,500.0,300.0,500.0,500.0,0.0,500.0,400.0,300.0,500.0,500.0,500.0,200.0,300.0,300.0,300.0,500.0,400.0,500.0,500.0,300.0,500.0,300.0,300.0,300.0,200.0,500.0,300.0,500.0,500.0,300.0,500.0,500.0,300.0,500.0,200.0,500.0,300.0,500.0,500.0,500.0,500.0,500.0,500.0,500.0,-8200445.0,51368.0
2008-02-15 16:00:00,100.0,300.0,500.0,0.0,300.0,0.0,200.0,400.0,500.0,500.0,300.0,0.0,500.0,500.0,500.0,0.0,400.0,200.0,0.0,500.0,100.0,200.0,100.0,500.0,200.0,300.0,200.0,500.0,500.0,300.0,500.0,500.0,500.0,500.0,0.0,100.0,500.0,500.0,300.0,300.0,500.0,0.0,500.0,300.0,500.0,500.0,500.0,100.0,500.0,400.0,500.0,500.0,500.0,500.0,400.0,100.0,500.0,300.0,300.0,300.0,400.0,400.0,300.0,500.0,500.0,500.0,500.0,100.0,200.0,400.0,500.0,200.0,500.0,500.0,300.0,500.0,400.0,500.0,500.0,500.0,500.0,500.0,400.0,500.0,500.0,500.0,100.0,300.0,0.0,0.0,500.0,0.0,500.0,500.0,0.0,100.0,500.0,100.0,200.0,0.0,400.0,500.0,300.0,400.0,500.0,0.0,500.0,500.0,500.0,400.0,500.0,200.0,400.0,300.0,500.0,500.0,100.0,300.0,100.0,300.0,300.0,200.0,200.0,400.0,500.0,300.0,500.0,400.0,300.0,500.0,500.0,500.0,400.0,200.0,200.0,500.0,500.0,200.0,200.0,400.0,500.0,0.0,300.0,400.0,200.0,500.0,100.0,400.0,100.0,400.0,500.0,400.0,400.0,500.0,500.0,500.0,400.0,500.0,400.0,100.0,500.0,400.0,400.0,100.0,500.0,500.0,500.0,0.0,500.0,200.0,200.0,500.0,500.0,400.0,500.0,500.0,500.0,500.0,500.0,400.0,500.0,400.0,500.0,300.0,400.0,200.0,200.0,400.0,500.0,200.0,500.0,300.0,500.0,0.0,500.0,400.0,500.0,400.0,500.0,200.0,500.0,500.0,500.0,200.0,0.0,200.0,500.0,200.0,500.0,300.0,500.0,500.0,100.0,200.0,500.0,500.0,0.0,300.0,400.0,500.0,500.0,200.0,400.0,500.0,300.0,500.0,500.0,500.0,300.0,0.0,400.0,500.0,500.0,100.0,500.0,400.0,200.0,500.0,200.0,500.0,500.0,500.0,300.0,400.0,500.0,400.0,200.0,500.0,300.0,500.0,500.0,500.0,500.0,100.0,500.0,300.0,500.0,400.0,400.0,500.0,500.0,300.0,300.0,0.0,500.0,500.0,200.0,500.0,500.0,500.0,200.0,400.0,500.0,400.0,0.0,500.0,400.0,500.0,500.0,300.0,300.0,500.0,500.0,500.0,500.0,200.0,500.0,200.0,500.0,100.0,100.0,200.0,400.0,500.0,0.0,400.0,0.0,400.0,200.0,0.0,400.0,500.0,400.0,400.0,500.0,0.0,0.0,500.0,500.0,500.0,200.0,300.0,0.0,300.0,200.0,500.0,200.0,500.0,200.0,400.0,500.0,500.0,400.0,500.0,400.0,500.0,500.0,500.0,500.0,400.0,200.0,300.0,300.0,500.0,0.0,400.0,500.0,300.0,100.0,500.0,300.0,200.0,500.0,400.0,400.0,200.0,300.0,400.0,400.0,300.0,500.0,500.0,300.0,300.0,500.0,500.0,500.0,500.0,500.0,400.0,300.0,0.0,500.0,100.0,500.0,500.0,400.0,400.0,0.0,300.0,400.0,500.0,400.0,500.0,500.0,500.0,100.0,500.0,500.0,500.0,300.0,100.0,500.0,500.0,200.0,400.0,300.0,400.0,500.0,300.0,300.0,400.0,100.0,500.0,500.0,500.0,500.0,200.0,400.0,200.0,500.0,500.0,500.0,0.0,300.0,500.0,400.0,200.0,500.0,500.0,100.0,500.0,300.0,400.0,500.0,500.0,100.0,500.0,400.0,500.0,400.0,400.0,100.0,200.0,400.0,500.0,200.0,500.0,500.0,0.0,500.0,500.0,500.0,500.0,100.0,500.0,400.0,500.0,500.0,500.0,300.0,100.0,500.0,500.0,500.0,0.0,500.0,500.0,500.0,400.0,500.0,500.0,0.0,500.0,400.0,300.0,500.0,400.0,500.0,100.0,300.0,400.0,300.0,500.0,400.0,500.0,500.0,300.0,500.0,300.0,200.0,300.0,200.0,500.0,200.0,500.0,500.0,300.0,500.0,500.0,400.0,500.0,100.0,500.0,400.0,400.0,500.0,500.0,500.0,500.0,500.0,500.0,-8216947.0,55843.0
2008-02-19 16:00:00,100.0,200.0,500.0,0.0,200.0,100.0,200.0,500.0,500.0,400.0,400.0,0.0,500.0,500.0,500.0,100.0,400.0,300.0,0.0,500.0,200.0,300.0,100.0,400.0,200.0,300.0,200.0,500.0,500.0,300.0,500.0,500.0,500.0,500.0,100.0,0.0,400.0,500.0,400.0,200.0,500.0,0.0,500.0,300.0,500.0,500.0,500.0,100.0,500.0,300.0,500.0,500.0,400.0,500.0,400.0,100.0,500.0,300.0,400.0,400.0,400.0,400.0,200.0,500.0,500.0,500.0,500.0,100.0,100.0,400.0,500.0,200.0,500.0,500.0,300.0,500.0,500.0,500.0,500.0,500.0,400.0,500.0,400.0,500.0,500.0,500.0,100.0,200.0,0.0,0.0,500.0,100.0,500.0,500.0,0.0,100.0,500.0,100.0,300.0,0.0,400.0,500.0,300.0,500.0,500.0,0.0,500.0,500.0,500.0,400.0,500.0,300.0,400.0,400.0,400.0,500.0,100.0,300.0,200.0,300.0,200.0,300.0,300.0,400.0,500.0,300.0,500.0,500.0,200.0,500.0,500.0,500.0,500.0,300.0,300.0,500.0,500.0,100.0,300.0,400.0,500.0,0.0,300.0,400.0,100.0,500.0,100.0,300.0,100.0,500.0,500.0,300.0,300.0,500.0,500.0,500.0,500.0,500.0,400.0,200.0,500.0,500.0,500.0,0.0,500.0,400.0,500.0,0.0,500.0,100.0,100.0,500.0,500.0,300.0,500.0,500.0,500.0,500.0,500.0,400.0,500.0,400.0,500.0,400.0,500.0,300.0,200.0,400.0,500.0,200.0,500.0,300.0,500.0,0.0,500.0,500.0,500.0,300.0,500.0,100.0,500.0,500.0,500.0,300.0,0.0,300.0,400.0,100.0,500.0,300.0,500.0,500.0,200.0,200.0,400.0,400.0,0.0,300.0,500.0,400.0,500.0,300.0,500.0,500.0,200.0,500.0,500.0,500.0,300.0,0.0,400.0,500.0,500.0,200.0,500.0,400.0,300.0,500.0,300.0,500.0,500.0,500.0,300.0,400.0,500.0,500.0,300.0,500.0,400.0,500.0,500.0,500.0,500.0,0.0,500.0,300.0,500.0,300.0,400.0,500.0,500.0,300.0,400.0,0.0,500.0,500.0,300.0,500.0,500.0,500.0,300.0,400.0,500.0,400.0,0.0,400.0,300.0,500.0,500.0,400.0,400.0,500.0,500.0,500.0,500.0,100.0,500.0,300.0,500.0,200.0,100.0,100.0,400.0,500.0,0.0,400.0,0.0,400.0,300.0,0.0,500.0,400.0,300.0,500.0,400.0,0.0,0.0,500.0,500.0,500.0,100.0,300.0,0.0,200.0,300.0,500.0,100.0,500.0,100.0,500.0,500.0,500.0,400.0,500.0,500.0,400.0,500.0,400.0,500.0,500.0,200.0,200.0,400.0,500.0,100.0,500.0,500.0,300.0,100.0,500.0,200.0,300.0,500.0,400.0,400.0,200.0,300.0,300.0,400.0,200.0,400.0,500.0,400.0,400.0,500.0,500.0,500.0,500.0,500.0,400.0,400.0,0.0,500.0,100.0,500.0,500.0,500.0,500.0,0.0,300.0,300.0,500.0,300.0,500.0,500.0,500.0,0.0,500.0,500.0,500.0,300.0,200.0,500.0,500.0,300.0,300.0,300.0,500.0,500.0,400.0,300.0,300.0,200.0,400.0,500.0,500.0,400.0,100.0,400.0,100.0,500.0,500.0,400.0,0.0,400.0,500.0,300.0,100.0,500.0,500.0,200.0,500.0,200.0,500.0,500.0,500.0,200.0,500.0,400.0,500.0,400.0,400.0,0.0,200.0,300.0,500.0,300.0,500.0,500.0,0.0,400.0,500.0,500.0,500.0,200.0,500.0,400.0,500.0,500.0,500.0,300.0,0.0,500.0,500.0,500.0,0.0,500.0,500.0,500.0,500.0,500.0,500.0,0.0,500.0,500.0,300.0,500.0,300.0,500.0,200.0,400.0,500.0,400.0,500.0,400.0,500.0,500.0,400.0,500.0,200.0,200.0,300.0,100.0,500.0,100.0,500.0,500.0,400.0,500.0,400.0,500.0,500.0,0.0,500.0,400.0,300.0,500.0,500.0,500.0,500.0,500.0,500.0,-8227712.0,40162.0
2008-02-20 16:00:00,100.0,100.0,400.0,0.0,100.0,200.0,300.0,500.0,400.0,300.0,500.0,0.0,500.0,500.0,500.0,200.0,400.0,400.0,0.0,400.0,300.0,400.0,200.0,300.0,200.0,200.0,300.0,500.0,500.0,400.0,500.0,500.0,400.0,400.0,200.0,0.0,300.0,400.0,300.0,200.0,500.0,0.0,500.0,400.0,500.0,400.0,500.0,200.0,500.0,300.0,400.0,500.0,300.0,500.0,400.0,100.0,500.0,300.0,500.0,500.0,400.0,300.0,200.0,500.0,500.0,500.0,500.0,0.0,100.0,400.0,400.0,200.0,400.0,500.0,200.0,500.0,500.0,500.0,500.0,500.0,300.0,500.0,400.0,500.0,500.0,500.0,100.0,100.0,0.0,0.0,500.0,200.0,500.0,500.0,0.0,100.0,400.0,100.0,300.0,0.0,300.0,500.0,400.0,500.0,500.0,0.0,500.0,500.0,400.0,300.0,500.0,400.0,400.0,400.0,300.0,400.0,100.0,300.0,300.0,200.0,100.0,400.0,400.0,300.0,500.0,400.0,500.0,400.0,100.0,400.0,400.0,500.0,500.0,400.0,400.0,400.0,500.0,100.0,300.0,400.0,500.0,0.0,300.0,400.0,0.0,500.0,100.0,200.0,100.0,500.0,500.0,300.0,300.0,500.0,500.0,500.0,400.0,500.0,400.0,200.0,400.0,400.0,500.0,0.0,500.0,300.0,500.0,0.0,500.0,0.0,100.0,500.0,400.0,200.0,500.0,500.0,500.0,500.0,400.0,400.0,500.0,400.0,400.0,400.0,500.0,400.0,100.0,400.0,500.0,200.0,400.0,300.0,500.0,0.0,500.0,500.0,500.0,200.0,500.0,0.0,500.0,500.0,500.0,400.0,0.0,300.0,300.0,0.0,500.0,300.0,500.0,400.0,200.0,200.0,300.0,300.0,100.0,200.0,500.0,400.0,400.0,300.0,400.0,500.0,200.0,500.0,500.0,500.0,300.0,0.0,400.0,500.0,500.0,300.0,500.0,400.0,400.0,500.0,400.0,500.0,500.0,400.0,400.0,400.0,500.0,500.0,400.0,500.0,500.0,500.0,500.0,500.0,400.0,100.0,400.0,200.0,400.0,200.0,300.0,400.0,500.0,300.0,500.0,100.0,400.0,500.0,400.0,500.0,500.0,400.0,400.0,300.0,500.0,500.0,0.0,300.0,300.0,500.0,500.0,500.0,400.0,500.0,500.0,500.0,500.0,0.0,500.0,400.0,500.0,300.0,200.0,100.0,500.0,500.0,0.0,300.0,0.0,400.0,300.0,100.0,500.0,300.0,200.0,500.0,300.0,0.0,0.0,500.0,500.0,400.0,0.0,200.0,0.0,100.0,400.0,500.0,0.0,500.0,100.0,500.0,500.0,500.0,400.0,500.0,500.0,400.0,500.0,300.0,500.0,500.0,100.0,100.0,400.0,500.0,100.0,500.0,500.0,400.0,100.0,400.0,100.0,300.0,500.0,400.0,400.0,200.0,300.0,200.0,400.0,200.0,300.0,500.0,500.0,500.0,500.0,500.0,500.0,500.0,500.0,500.0,400.0,0.0,500.0,100.0,500.0,500.0,500.0,500.0,0.0,300.0,200.0,500.0,200.0,400.0,500.0,500.0,0.0,500.0,500.0,500.0,400.0,300.0,500.0,500.0,300.0,200.0,300.0,500.0,500.0,500.0,200.0,200.0,200.0,300.0,500.0,400.0,300.0,0.0,300.0,0.0,400.0,500.0,300.0,0.0,500.0,500.0,200.0,100.0,500.0,500.0,300.0,400.0,300.0,500.0,400.0,500.0,200.0,500.0,400.0,500.0,400.0,300.0,0.0,200.0,200.0,500.0,400.0,500.0,500.0,100.0,300.0,400.0,400.0,500.0,300.0,400.0,500.0,400.0,500.0,500.0,200.0,100.0,500.0,500.0,500.0,100.0,500.0,500.0,500.0,500.0,500.0,500.0,0.0,500.0,500.0,300.0,500.0,200.0,500.0,300.0,500.0,400.0,500.0,500.0,300.0,500.0,500.0,500.0,500.0,200.0,300.0,300.0,100.0,500.0,100.0,500.0,500.0,400.0,500.0,300.0,400.0,500.0,0.0,500.0,300.0,200.0,500.0,500.0,500.0,500.0,500.0,500.0,-7974653.0,135600.0
2008-02-21 16:00:00,100.0,200.0,300.0,0.0,100.0,300.0,400.0,500.0,400.0,200.0,500.0,0.0,500.0,500.0,500.0,300.0,400.0,300.0,100.0,400.0,400.0,500.0,300.0,300.0,200.0,300.0,400.0,500.0,500.0,500.0,500.0,500.0,400.0,300.0,300.0,100.0,300.0,400.0,300.0,100.0,500.0,100.0,500.0,500.0,500.0,400.0,500.0,300.0,500.0,300.0,300.0,500.0,200.0,500.0,400.0,200.0,500.0,300.0,500.0,500.0,500.0,400.0,100.0,500.0,500.0,500.0,500.0,0.0,200.0,400.0,400.0,200.0,300.0,500.0,200.0,500.0,500.0,500.0,500.0,500.0,200.0,500.0,400.0,500.0,500.0,500.0,100.0,100.0,0.0,0.0,500.0,300.0,500.0,500.0,100.0,100.0,300.0,100.0,400.0,0.0,400.0,500.0,400.0,500.0,500.0,0.0,500.0,400.0,400.0,300.0,500.0,300.0,500.0,500.0,200.0,400.0,100.0,300.0,400.0,300.0,100.0,400.0,500.0,300.0,500.0,500.0,500.0,400.0,0.0,300.0,400.0,500.0,500.0,500.0,500.0,400.0,500.0,100.0,400.0,500.0,500.0,0.0,400.0,400.0,100.0,500.0,100.0,100.0,200.0,500.0,500.0,300.0,200.0,500.0,500.0,500.0,400.0,500.0,500.0,300.0,400.0,400.0,500.0,100.0,500.0,200.0,500.0,0.0,500.0,0.0,200.0,500.0,400.0,200.0,500.0,500.0,500.0,500.0,400.0,400.0,500.0,500.0,300.0,500.0,500.0,500.0,0.0,500.0,500.0,300.0,400.0,400.0,500.0,0.0,500.0,500.0,500.0,200.0,500.0,0.0,500.0,500.0,500.0,500.0,0.0,300.0,200.0,100.0,500.0,400.0,500.0,400.0,300.0,300.0,300.0,300.0,100.0,200.0,500.0,300.0,400.0,400.0,300.0,500.0,100.0,500.0,500.0,500.0,300.0,0.0,500.0,500.0,500.0,400.0,500.0,500.0,500.0,500.0,500.0,500.0,500.0,400.0,400.0,500.0,500.0,500.0,500.0,500.0,500.0,500.0,500.0,500.0,400.0,200.0,300.0,200.0,300.0,200.0,300.0,400.0,500.0,400.0,500.0,200.0,300.0,500.0,500.0,500.0,500.0,400.0,400.0,300.0,500.0,500.0,0.0,200.0,400.0,500.0,500.0,500.0,500.0,500.0,500.0,500.0,500.0,0.0,500.0,500.0,500.0,400.0,300.0,200.0,500.0,500.0,0.0,300.0,0.0,500.0,300.0,200.0,500.0,300.0,100.0,500.0,300.0,100.0,100.0,500.0,500.0,400.0,100.0,200.0,0.0,200.0,500.0,400.0,100.0,500.0,200.0,500.0,500.0,500.0,500.0,500.0,500.0,400.0,500.0,300.0,500.0,400.0,100.0,100.0,400.0,500.0,100.0,500.0,500.0,500.0,200.0,300.0,100.0,400.0,500.0,500.0,400.0,200.0,300.0,100.0,500.0,100.0,200.0,500.0,500.0,500.0,500.0,500.0,500.0,500.0,500.0,400.0,500.0,0.0,500.0,0.0,500.0,500.0,500.0,500.0,100.0,300.0,100.0,500.0,300.0,400.0,500.0,500.0,0.0,500.0,500.0,500.0,500.0,400.0,500.0,500.0,400.0,100.0,400.0,500.0,400.0,500.0,200.0,200.0,200.0,200.0,500.0,400.0,200.0,0.0,200.0,100.0,400.0,500.0,300.0,0.0,500.0,500.0,200.0,200.0,500.0,500.0,400.0,400.0,300.0,500.0,400.0,500.0,300.0,500.0,500.0,500.0,500.0,300.0,100.0,300.0,100.0,500.0,500.0,500.0,500.0,200.0,200.0,400.0,400.0,500.0,400.0,400.0,500.0,400.0,500.0,500.0,200.0,200.0,500.0,500.0,500.0,200.0,500.0,500.0,500.0,500.0,500.0,500.0,0.0,500.0,500.0,400.0,500.0,200.0,500.0,400.0,500.0,300.0,400.0,500.0,300.0,500.0,500.0,400.0,500.0,300.0,300.0,400.0,100.0,500.0,100.0,500.0,500.0,500.0,500.0,300.0,400.0,500.0,0.0,500.0,300.0,200.0,500.0,500.0,500.0,500.0,500.0,500.0,-8333262.0,14721.0
2008-02-22 16:00:00,100.0,200.0,200.0,0.0,0.0,300.0,500.0,500.0,400.0,200.0,400.0,100.0,400.0,400.0,500.0,400.0,400.0,200.0,200.0,300.0,500.0,500.0,300.0,300.0,200.0,300.0,400.0,500.0,500.0,500.0,400.0,500.0,400.0,200.0,400.0,200.0,200.0,400.0,200.0,0.0,500.0,200.0,500.0,500.0,500.0,300.0,500.0,400.0,500.0,200.0,200.0,400.0,100.0,500.0,500.0,100.0,400.0,400.0,500.0,500.0,500.0,400.0,0.0,500.0,500.0,500.0,400.0,0.0,300.0,400.0,400.0,100.0,200.0,500.0,100.0,500.0,500.0,500.0,500.0,400.0,100.0,500.0,400.0,400.0,500.0,500.0,200.0,0.0,0.0,100.0,500.0,300.0,500.0,500.0,200.0,0.0,200.0,100.0,400.0,0.0,300.0,500.0,300.0,500.0,500.0,0.0,400.0,300.0,400.0,300.0,500.0,300.0,500.0,500.0,200.0,400.0,0.0,400.0,500.0,400.0,200.0,500.0,500.0,300.0,400.0,500.0,500.0,300.0,0.0,200.0,300.0,500.0,500.0,500.0,400.0,300.0,500.0,100.0,300.0,500.0,500.0,0.0,400.0,400.0,100.0,400.0,0.0,0.0,300.0,500.0,500.0,300.0,100.0,500.0,400.0,500.0,400.0,500.0,500.0,400.0,300.0,400.0,500.0,200.0,500.0,200.0,400.0,0.0,500.0,0.0,300.0,400.0,400.0,100.0,500.0,500.0,500.0,500.0,300.0,400.0,500.0,500.0,200.0,400.0,400.0,500.0,0.0,500.0,500.0,400.0,400.0,400.0,400.0,0.0,500.0,500.0,500.0,100.0,500.0,0.0,500.0,400.0,400.0,500.0,0.0,400.0,100.0,200.0,500.0,400.0,500.0,400.0,300.0,200.0,200.0,300.0,200.0,100.0,500.0,200.0,300.0,400.0,200.0,500.0,0.0,500.0,400.0,400.0,300.0,0.0,500.0,500.0,500.0,400.0,500.0,500.0,500.0,400.0,500.0,400.0,500.0,300.0,400.0,500.0,500.0,500.0,500.0,400.0,500.0,500.0,500.0,500.0,300.0,300.0,200.0,100.0,200.0,200.0,300.0,400.0,500.0,400.0,500.0,300.0,200.0,500.0,500.0,500.0,400.0,300.0,300.0,200.0,400.0,500.0,0.0,100.0,400.0,500.0,400.0,500.0,500.0,500.0,500.0,500.0,500.0,0.0,500.0,500.0,500.0,500.0,400.0,200.0,500.0,500.0,0.0,200.0,0.0,500.0,200.0,300.0,400.0,300.0,200.0,500.0,300.0,200.0,200.0,500.0,400.0,400.0,200.0,200.0,0.0,200.0,500.0,300.0,200.0,500.0,300.0,500.0,500.0,400.0,500.0,500.0,500.0,400.0,500.0,200.0,500.0,300.0,100.0,0.0,300.0,400.0,100.0,500.0,500.0,500.0,100.0,200.0,200.0,500.0,500.0,500.0,400.0,100.0,300.0,0.0,500.0,0.0,100.0,500.0,500.0,500.0,500.0,500.0,500.0,500.0,500.0,300.0,500.0,0.0,400.0,0.0,500.0,500.0,500.0,500.0,200.0,300.0,0.0,500.0,300.0,300.0,500.0,400.0,0.0,400.0,500.0,500.0,500.0,500.0,400.0,500.0,400.0,0.0,500.0,500.0,300.0,400.0,100.0,200.0,200.0,100.0,500.0,300.0,200.0,0.0,100.0,200.0,400.0,500.0,300.0,0.0,400.0,500.0,200.0,100.0,400.0,400.0,500.0,400.0,200.0,500.0,400.0,500.0,400.0,400.0,500.0,500.0,500.0,200.0,100.0,200.0,0.0,500.0,500.0,500.0,400.0,200.0,100.0,300.0,300.0,500.0,400.0,300.0,500.0,300.0,500.0,500.0,100.0,300.0,500.0,500.0,500.0,300.0,500.0,500.0,500.0,500.0,400.0,400.0,0.0,500.0,500.0,500.0,500.0,200.0,400.0,400.0,500.0,200.0,300.0,500.0,200.0,400.0,500.0,300.0,500.0,300.0,300.0,500.0,100.0,500.0,200.0,400.0,500.0,500.0,500.0,200.0,400.0,400.0,0.0,500.0,300.0,100.0,400.0,500.0,500.0,500.0,500.0,500.0,-7978074.0,85218.0
2008-02-25 16:00:00,100.0,200.0,100.0,0.0,0.0,400.0,500.0,500.0,400.0,200.0,300.0,200.0,300.0,400.0,500.0,400.0,300.0,200.0,300.0,300.0,500.0,500.0,400.0,300.0,100.0,300.0,400.0,500.0,500.0,400.0,400.0,500.0,400.0,100.0,500.0,200.0,100.0,300.0,100.0,0.0,500.0,300.0,400.0,500.0,500.0,300.0,500.0,500.0,500.0,200.0,200.0,400.0,0.0,400.0,500.0,200.0,400.0,400.0,500.0,500.0,500.0,400.0,0.0,400.0,500.0,500.0,300.0,0.0,400.0,400.0,400.0,200.0,100.0,500.0,100.0,500.0,500.0,400.0,400.0,300.0,0.0,500.0,400.0,400.0,500.0,500.0,200.0,0.0,0.0,100.0,500.0,400.0,500.0,400.0,200.0,100.0,200.0,200.0,400.0,0.0,300.0,500.0,400.0,400.0,500.0,0.0,400.0,200.0,300.0,300.0,500.0,300.0,500.0,500.0,200.0,300.0,100.0,500.0,500.0,400.0,300.0,400.0,500.0,200.0,400.0,400.0,400.0,300.0,0.0,200.0,200.0,500.0,500.0,500.0,400.0,300.0,500.0,0.0,300.0,500.0,500.0,0.0,300.0,500.0,100.0,400.0,0.0,0.0,200.0,500.0,500.0,400.0,100.0,500.0,400.0,500.0,300.0,400.0,500.0,300.0,200.0,400.0,500.0,200.0,500.0,200.0,400.0,0.0,500.0,0.0,400.0,300.0,300.0,0.0,500.0,500.0,500.0,500.0,300.0,400.0,500.0,400.0,100.0,300.0,300.0,500.0,0.0,500.0,400.0,500.0,400.0,400.0,300.0,0.0,500.0,400.0,400.0,100.0,500.0,0.0,500.0,400.0,300.0,500.0,100.0,400.0,0.0,200.0,500.0,400.0,500.0,400.0,400.0,300.0,200.0,200.0,300.0,100.0,500.0,100.0,300.0,300.0,100.0,400.0,0.0,500.0,300.0,300.0,200.0,0.0,400.0,500.0,500.0,300.0,400.0,400.0,500.0,400.0,400.0,300.0,500.0,200.0,500.0,500.0,500.0,500.0,500.0,300.0,400.0,400.0,400.0,500.0,300.0,400.0,200.0,100.0,200.0,300.0,400.0,400.0,500.0,500.0,500.0,400.0,200.0,500.0,500.0,400.0,300.0,300.0,400.0,200.0,300.0,500.0,0.0,100.0,300.0,500.0,400.0,500.0,500.0,500.0,500.0,500.0,500.0,0.0,500.0,500.0,500.0,500.0,500.0,200.0,500.0,500.0,0.0,100.0,100.0,400.0,200.0,400.0,400.0,200.0,100.0,500.0,300.0,300.0,300.0,500.0,400.0,400.0,200.0,300.0,100.0,100.0,500.0,300.0,200.0,500.0,400.0,500.0,400.0,300.0,500.0,500.0,500.0,300.0,500.0,200.0,400.0,200.0,0.0,0.0,300.0,400.0,200.0,500.0,400.0,500.0,100.0,100.0,200.0,500.0,500.0,500.0,400.0,100.0,400.0,100.0,500.0,0.0,0.0,500.0,500.0,500.0,500.0,400.0,500.0,500.0,500.0,300.0,400.0,0.0,400.0,100.0,500.0,400.0,500.0,500.0,300.0,400.0,0.0,400.0,200.0,200.0,500.0,400.0,0.0,400.0,500.0,500.0,500.0,500.0,300.0,500.0,300.0,0.0,400.0,500.0,200.0,300.0,200.0,300.0,300.0,0.0,500.0,200.0,200.0,0.0,100.0,200.0,400.0,500.0,300.0,0.0,400.0,500.0,300.0,200.0,300.0,300.0,500.0,400.0,200.0,400.0,300.0,500.0,300.0,300.0,500.0,500.0,500.0,100.0,200.0,100.0,0.0,500.0,500.0,400.0,400.0,300.0,0.0,200.0,200.0,400.0,500.0,300.0,400.0,300.0,500.0,500.0,100.0,400.0,500.0,400.0,500.0,300.0,500.0,500.0,500.0,500.0,400.0,400.0,0.0,500.0,500.0,400.0,500.0,300.0,400.0,500.0,500.0,200.0,200.0,500.0,100.0,400.0,500.0,200.0,500.0,300.0,300.0,500.0,0.0,500.0,300.0,300.0,500.0,500.0,500.0,100.0,300.0,300.0,0.0,500.0,200.0,100.0,400.0,500.0,400.0,500.0,500.0,500.0,-7653198.0,200586.0
2008-02-26 16:00:00,200.0,200.0,0.0,100.0,100.0,400.0,400.0,500.0,400.0,300.0,300.0,300.0,300.0,400.0,500.0,400.0,200.0,200.0,400.0,300.0,500.0,500.0,500.0,400.0,0.0,300.0,500.0,400.0,500.0,300.0,400.0,500.0,400.0,0.0,500.0,200.0,100.0,200.0,100.0,0.0,400.0,400.0,300.0,500.0,400.0,300.0,400.0,500.0,500.0,300.0,200.0,400.0,100.0,400.0,500.0,300.0,400.0,300.0,500.0,500.0,500.0,400.0,100.0,400.0,500.0,500.0,300.0,0.0,500.0,300.0,400.0,300.0,0.0,500.0,100.0,500.0,400.0,300.0,300.0,300.0,0.0,500.0,300.0,300.0,500.0,500.0,300.0,100.0,0.0,100.0,500.0,400.0,400.0,400.0,300.0,200.0,200.0,300.0,400.0,100.0,300.0,400.0,400.0,400.0,500.0,0.0,300.0,200.0,200.0,400.0,500.0,200.0,500.0,500.0,300.0,200.0,200.0,500.0,500.0,400.0,400.0,400.0,500.0,200.0,400.0,300.0,400.0,300.0,0.0,200.0,100.0,500.0,400.0,500.0,400.0,300.0,500.0,0.0,200.0,500.0,500.0,0.0,200.0,500.0,100.0,400.0,0.0,0.0,200.0,500.0,500.0,500.0,100.0,500.0,400.0,500.0,300.0,400.0,400.0,200.0,100.0,300.0,500.0,200.0,500.0,300.0,400.0,100.0,500.0,100.0,500.0,300.0,200.0,100.0,500.0,500.0,500.0,500.0,300.0,300.0,500.0,300.0,100.0,300.0,200.0,500.0,0.0,500.0,300.0,500.0,300.0,400.0,300.0,100.0,500.0,400.0,300.0,100.0,500.0,0.0,500.0,300.0,200.0,500.0,200.0,300.0,100.0,200.0,500.0,300.0,500.0,400.0,400.0,300.0,300.0,200.0,400.0,200.0,500.0,200.0,300.0,200.0,0.0,400.0,100.0,500.0,200.0,300.0,200.0,100.0,300.0,500.0,500.0,300.0,300.0,300.0,500.0,400.0,300.0,200.0,500.0,200.0,500.0,500.0,400.0,400.0,500.0,200.0,300.0,400.0,300.0,500.0,300.0,500.0,200.0,100.0,200.0,300.0,400.0,400.0,500.0,500.0,400.0,500.0,100.0,500.0,500.0,400.0,200.0,200.0,300.0,300.0,300.0,500.0,0.0,200.0,300.0,500.0,400.0,500.0,500.0,500.0,500.0,500.0,400.0,100.0,500.0,500.0,400.0,500.0,400.0,200.0,500.0,400.0,0.0,200.0,200.0,300.0,100.0,500.0,400.0,300.0,100.0,500.0,300.0,400.0,400.0,500.0,400.0,400.0,200.0,400.0,200.0,100.0,500.0,300.0,200.0,500.0,500.0,400.0,300.0,300.0,500.0,500.0,400.0,300.0,500.0,300.0,400.0,100.0,0.0,0.0,300.0,400.0,200.0,500.0,400.0,500.0,100.0,100.0,200.0,500.0,500.0,500.0,500.0,100.0,300.0,200.0,500.0,0.0,0.0,500.0,500.0,500.0,400.0,300.0,500.0,500.0,500.0,300.0,300.0,0.0,400.0,200.0,500.0,400.0,500.0,500.0,400.0,300.0,0.0,300.0,200.0,100.0,500.0,300.0,0.0,400.0,400.0,500.0,500.0,500.0,200.0,400.0,200.0,100.0,300.0,500.0,100.0,300.0,300.0,300.0,300.0,0.0,500.0,200.0,300.0,0.0,0.0,200.0,400.0,500.0,400.0,0.0,400.0,500.0,400.0,300.0,300.0,300.0,400.0,400.0,300.0,400.0,200.0,400.0,200.0,200.0,500.0,500.0,500.0,0.0,300.0,100.0,100.0,500.0,500.0,300.0,400.0,300.0,0.0,200.0,100.0,300.0,500.0,200.0,300.0,300.0,400.0,500.0,100.0,500.0,500.0,300.0,400.0,400.0,500.0,400.0,500.0,400.0,400.0,400.0,0.0,500.0,500.0,300.0,400.0,400.0,400.0,400.0,500.0,200.0,100.0,500.0,0.0,400.0,500.0,100.0,500.0,300.0,300.0,400.0,0.0,400.0,300.0,200.0,500.0,500.0,500.0,100.0,200.0,300.0,100.0,400.0,200.0,200.0,400.0,500.0,300.0,500.0,500.0,400.0,-7429499.0,250784.0
2008-02-27 16:00:00,300.0,200.0,0.0,200.0,200.0,300.0,300.0,500.0,500.0,400.0,300.0,400.0,300.0,400.0,500.0,400.0,200.0,200.0,500.0,400.0,500.0,500.0,400.0,500.0,100.0,300.0,500.0,400.0,500.0,300.0,400.0,500.0,400.0,100.0,500.0,300.0,200.0,200.0,200.0,0.0,300.0,500.0,300.0,500.0,300.0,400.0,300.0,500.0,500.0,300.0,300.0,400.0,200.0,400.0,500.0,400.0,400.0,300.0,500.0,500.0,500.0,500.0,200.0,400.0,500.0,500.0,300.0,100.0,500.0,300.0,500.0,400.0,0.0,500.0,200.0,500.0,400.0,200.0,200.0,300.0,0.0,500.0,200.0,300.0,500.0,500.0,300.0,200.0,0.0,200.0,500.0,400.0,300.0,300.0,400.0,300.0,300.0,400.0,500.0,200.0,400.0,300.0,400.0,400.0,500.0,100.0,200.0,200.0,200.0,500.0,500.0,200.0,500.0,400.0,300.0,300.0,300.0,500.0,500.0,400.0,500.0,400.0,500.0,200.0,400.0,200.0,400.0,300.0,0.0,300.0,100.0,400.0,400.0,500.0,400.0,300.0,500.0,100.0,200.0,500.0,500.0,0.0,300.0,500.0,100.0,400.0,100.0,100.0,300.0,500.0,500.0,500.0,100.0,500.0,400.0,500.0,400.0,300.0,400.0,200.0,200.0,300.0,500.0,200.0,500.0,400.0,400.0,200.0,500.0,200.0,500.0,300.0,200.0,100.0,500.0,500.0,500.0,400.0,400.0,200.0,500.0,200.0,200.0,300.0,200.0,500.0,0.0,500.0,200.0,500.0,300.0,400.0,300.0,200.0,500.0,400.0,300.0,200.0,500.0,100.0,400.0,200.0,100.0,500.0,200.0,200.0,200.0,200.0,500.0,400.0,500.0,400.0,500.0,400.0,400.0,300.0,400.0,300.0,500.0,200.0,400.0,300.0,0.0,400.0,100.0,500.0,100.0,300.0,300.0,200.0,200.0,500.0,400.0,300.0,300.0,200.0,500.0,400.0,200.0,200.0,500.0,300.0,500.0,500.0,400.0,400.0,500.0,100.0,300.0,300.0,300.0,500.0,400.0,500.0,300.0,100.0,300.0,300.0,500.0,500.0,400.0,500.0,400.0,500.0,200.0,400.0,500.0,400.0,200.0,200.0,200.0,400.0,300.0,500.0,0.0,300.0,200.0,500.0,400.0,500.0,500.0,500.0,500.0,400.0,400.0,200.0,500.0,500.0,300.0,500.0,300.0,200.0,400.0,400.0,0.0,300.0,300.0,300.0,100.0,500.0,400.0,400.0,200.0,500.0,300.0,500.0,500.0,400.0,400.0,500.0,200.0,500.0,300.0,100.0,500.0,300.0,300.0,500.0,500.0,300.0,200.0,300.0,500.0,500.0,400.0,300.0,500.0,400.0,400.0,0.0,0.0,100.0,300.0,400.0,300.0,500.0,400.0,500.0,200.0,200.0,200.0,500.0,500.0,500.0,500.0,200.0,300.0,300.0,500.0,0.0,0.0,500.0,500.0,500.0,400.0,200.0,500.0,400.0,500.0,300.0,200.0,0.0,400.0,300.0,500.0,400.0,500.0,500.0,500.0,400.0,0.0,200.0,300.0,100.0,500.0,300.0,100.0,400.0,300.0,500.0,500.0,500.0,100.0,400.0,300.0,200.0,200.0,500.0,100.0,300.0,400.0,400.0,400.0,100.0,500.0,300.0,400.0,0.0,0.0,300.0,500.0,500.0,400.0,0.0,400.0,500.0,500.0,400.0,300.0,300.0,400.0,500.0,300.0,400.0,300.0,400.0,300.0,100.0,500.0,500.0,500.0,100.0,400.0,100.0,200.0,500.0,500.0,200.0,400.0,200.0,0.0,300.0,100.0,200.0,500.0,200.0,300.0,300.0,400.0,400.0,100.0,500.0,400.0,300.0,300.0,400.0,500.0,400.0,500.0,400.0,400.0,400.0,0.0,500.0,500.0,300.0,400.0,500.0,400.0,400.0,500.0,300.0,0.0,500.0,0.0,400.0,500.0,0.0,400.0,300.0,300.0,400.0,100.0,300.0,400.0,100.0,500.0,500.0,500.0,200.0,300.0,300.0,200.0,300.0,200.0,300.0,400.0,500.0,200.0,500.0,500.0,400.0,-7686516.0,235227.0
2008-02-28 16:00:00,400.0,100.0,100.0,200.0,200.0,300.0,200.0,500.0,500.0,400.0,300.0,400.0,200.0,400.0,400.0,400.0,200.0,200.0,500.0,400.0,500.0,500.0,400.0,500.0,200.0,300.0,500.0,400.0,500.0,300.0,300.0,500.0,400.0,100.0,500.0,200.0,100.0,200.0,300.0,100.0,300.0,500.0,300.0,500.0,300.0,400.0,300.0,500.0,500.0,300.0,400.0,400.0,300.0,400.0,500.0,400.0,400.0,300.0,500.0,500.0,400.0,500.0,300.0,400.0,500.0,500.0,300.0,200.0,500.0,300.0,500.0,400.0,100.0,500.0,200.0,500.0,300.0,100.0,200.0,300.0,100.0,400.0,200.0,300.0,500.0,500.0,200.0,300.0,0.0,300.0,500.0,400.0,300.0,300.0,400.0,400.0,400.0,400.0,500.0,300.0,400.0,200.0,300.0,400.0,500.0,200.0,200.0,300.0,100.0,500.0,500.0,300.0,400.0,400.0,300.0,300.0,400.0,500.0,500.0,400.0,500.0,400.0,500.0,100.0,400.0,200.0,400.0,200.0,0.0,400.0,0.0,400.0,400.0,500.0,400.0,200.0,500.0,100.0,100.0,500.0,500.0,0.0,300.0,400.0,100.0,400.0,200.0,100.0,200.0,500.0,500.0,500.0,100.0,500.0,400.0,500.0,400.0,300.0,400.0,100.0,200.0,200.0,500.0,100.0,500.0,500.0,300.0,300.0,500.0,300.0,500.0,300.0,200.0,100.0,500.0,500.0,400.0,400.0,400.0,200.0,500.0,200.0,300.0,200.0,100.0,400.0,0.0,500.0,200.0,500.0,200.0,400.0,300.0,300.0,500.0,400.0,200.0,200.0,500.0,200.0,400.0,100.0,100.0,500.0,300.0,200.0,300.0,100.0,500.0,400.0,500.0,400.0,500.0,400.0,400.0,300.0,500.0,300.0,500.0,300.0,400.0,200.0,100.0,400.0,100.0,500.0,0.0,300.0,300.0,300.0,100.0,500.0,300.0,300.0,300.0,100.0,500.0,400.0,100.0,200.0,500.0,300.0,500.0,500.0,400.0,400.0,500.0,0.0,300.0,200.0,300.0,500.0,400.0,500.0,400.0,100.0,400.0,300.0,500.0,500.0,400.0,500.0,400.0,500.0,300.0,400.0,500.0,400.0,100.0,200.0,200.0,400.0,200.0,500.0,0.0,400.0,100.0,500.0,400.0,500.0,500.0,500.0,500.0,300.0,400.0,300.0,500.0,500.0,300.0,500.0,300.0,200.0,400.0,400.0,0.0,300.0,400.0,300.0,0.0,500.0,400.0,400.0,300.0,400.0,200.0,500.0,500.0,300.0,400.0,500.0,100.0,500.0,400.0,100.0,500.0,400.0,200.0,500.0,500.0,200.0,100.0,200.0,500.0,500.0,400.0,200.0,500.0,400.0,400.0,0.0,100.0,200.0,300.0,400.0,400.0,500.0,400.0,500.0,200.0,300.0,100.0,500.0,500.0,500.0,500.0,200.0,300.0,400.0,500.0,0.0,0.0,500.0,500.0,500.0,400.0,200.0,500.0,400.0,500.0,400.0,100.0,0.0,400.0,400.0,500.0,400.0,400.0,500.0,500.0,300.0,100.0,200.0,200.0,100.0,500.0,300.0,100.0,400.0,300.0,500.0,500.0,500.0,100.0,400.0,300.0,300.0,200.0,500.0,100.0,300.0,400.0,400.0,500.0,200.0,500.0,300.0,500.0,100.0,0.0,300.0,500.0,500.0,300.0,0.0,400.0,500.0,500.0,400.0,300.0,300.0,400.0,500.0,400.0,300.0,300.0,400.0,200.0,0.0,400.0,500.0,500.0,100.0,400.0,0.0,300.0,500.0,500.0,100.0,400.0,100.0,100.0,300.0,100.0,200.0,500.0,200.0,300.0,200.0,400.0,400.0,100.0,500.0,400.0,300.0,300.0,400.0,500.0,400.0,500.0,400.0,400.0,400.0,0.0,500.0,500.0,300.0,400.0,500.0,400.0,400.0,500.0,400.0,100.0,500.0,100.0,300.0,500.0,0.0,400.0,300.0,200.0,400.0,200.0,300.0,400.0,0.0,500.0,500.0,500.0,100.0,200.0,200.0,300.0,300.0,200.0,300.0,400.0,500.0,200.0,500.0,500.0,400.0,-7494956.0,148439.0
2008-02-29 16:00:00,400.0,100.0,200.0,200.0,200.0,400.0,200.0,500.0,500.0,400.0,400.0,300.0,200.0,400.0,300.0,400.0,200.0,200.0,500.0,500.0,500.0,400.0,400.0,500.0,300.0,400.0,500.0,300.0,500.0,300.0,300.0,500.0,400.0,200.0,500.0,200.0,200.0,200.0,400.0,100.0,300.0,500.0,300.0,500.0,300.0,400.0,300.0,500.0,400.0,400.0,500.0,400.0,400.0,400.0,500.0,500.0,500.0,300.0,500.0,500.0,400.0,500.0,400.0,400.0,400.0,400.0,400.0,300.0,500.0,300.0,500.0,500.0,200.0,500.0,300.0,500.0,300.0,100.0,200.0,400.0,200.0,300.0,200.0,400.0,500.0,500.0,100.0,400.0,0.0,300.0,400.0,400.0,300.0,300.0,400.0,500.0,400.0,500.0,500.0,400.0,500.0,100.0,400.0,400.0,500.0,300.0,300.0,300.0,100.0,400.0,500.0,300.0,300.0,400.0,300.0,300.0,500.0,500.0,500.0,300.0,500.0,300.0,500.0,100.0,400.0,200.0,400.0,300.0,0.0,500.0,0.0,400.0,400.0,500.0,500.0,300.0,500.0,200.0,200.0,500.0,500.0,0.0,300.0,300.0,200.0,400.0,300.0,100.0,200.0,500.0,400.0,500.0,100.0,500.0,400.0,500.0,400.0,300.0,400.0,0.0,300.0,200.0,500.0,100.0,400.0,500.0,400.0,400.0,500.0,400.0,500.0,400.0,200.0,200.0,500.0,500.0,300.0,400.0,500.0,200.0,500.0,200.0,300.0,200.0,100.0,300.0,100.0,400.0,200.0,500.0,200.0,500.0,300.0,300.0,400.0,400.0,100.0,300.0,500.0,200.0,400.0,100.0,100.0,500.0,400.0,200.0,400.0,0.0,500.0,400.0,500.0,400.0,500.0,500.0,500.0,300.0,500.0,400.0,500.0,400.0,500.0,200.0,200.0,400.0,200.0,500.0,0.0,300.0,300.0,400.0,100.0,500.0,300.0,400.0,300.0,0.0,500.0,500.0,100.0,200.0,500.0,400.0,500.0,500.0,400.0,400.0,500.0,100.0,300.0,200.0,300.0,400.0,500.0,500.0,400.0,200.0,500.0,300.0,500.0,500.0,400.0,400.0,400.0,500.0,300.0,400.0,500.0,400.0,200.0,300.0,300.0,400.0,300.0,500.0,0.0,500.0,100.0,500.0,400.0,500.0,500.0,500.0,500.0,200.0,400.0,400.0,400.0,500.0,300.0,500.0,300.0,200.0,400.0,400.0,0.0,400.0,500.0,300.0,100.0,500.0,500.0,400.0,300.0,300.0,200.0,500.0,500.0,200.0,400.0,500.0,100.0,500.0,400.0,200.0,500.0,500.0,200.0,400.0,500.0,100.0,0.0,200.0,500.0,500.0,400.0,200.0,500.0,500.0,300.0,0.0,200.0,300.0,400.0,500.0,500.0,500.0,400.0,400.0,300.0,400.0,100.0,400.0,500.0,500.0,500.0,200.0,300.0,500.0,500.0,100.0,100.0,500.0,500.0,500.0,400.0,200.0,500.0,400.0,400.0,500.0,100.0,0.0,500.0,500.0,500.0,400.0,300.0,500.0,500.0,300.0,200.0,200.0,200.0,200.0,500.0,400.0,200.0,400.0,300.0,400.0,500.0,500.0,200.0,400.0,300.0,400.0,200.0,500.0,100.0,400.0,500.0,400.0,500.0,300.0,400.0,400.0,400.0,200.0,100.0,300.0,500.0,500.0,200.0,0.0,400.0,500.0,500.0,500.0,400.0,300.0,400.0,500.0,500.0,200.0,300.0,400.0,200.0,0.0,300.0,400.0,400.0,200.0,500.0,100.0,400.0,400.0,400.0,100.0,500.0,200.0,200.0,400.0,200.0,200.0,500.0,300.0,300.0,300.0,400.0,400.0,200.0,500.0,400.0,300.0,300.0,400.0,500.0,400.0,500.0,400.0,500.0,500.0,0.0,500.0,500.0,300.0,400.0,500.0,400.0,400.0,500.0,500.0,200.0,500.0,200.0,300.0,500.0,0.0,400.0,300.0,200.0,400.0,300.0,300.0,400.0,100.0,500.0,500.0,500.0,100.0,200.0,200.0,400.0,300.0,200.0,400.0,500.0,500.0,200.0,400.0,500.0,400.0,-7880276.0,-87000.0
2008-03-03 16:00:00,400.0,200.0,300.0,200.0,200.0,300.0,200.0,500.0,400.0,400.0,500.0,200.0,200.0,300.0,200.0,400.0,300.0,200.0,500.0,400.0,500.0,400.0,400.0,500.0,300.0,400.0,500.0,200.0,400.0,400.0,200.0,400.0,400.0,300.0,400.0,300.0,300.0,300.0,400.0,100.0,300.0,500.0,400.0,500.0,300.0,300.0,300.0,500.0,300.0,400.0,400.0,300.0,400.0,400.0,500.0,500.0,400.0,300.0,500.0,500.0,300.0,400.0,500.0,400.0,300.0,300.0,400.0,300.0,500.0,400.0,500.0,500.0,200.0,400.0,400.0,400.0,300.0,200.0,200.0,400.0,300.0,200.0,300.0,400.0,400.0,500.0,100.0,500.0,0.0,400.0,300.0,300.0,200.0,400.0,500.0,500.0,300.0,500.0,500.0,400.0,500.0,0.0,300.0,500.0,400.0,400.0,300.0,300.0,200.0,300.0,400.0,400.0,200.0,400.0,300.0,400.0,400.0,500.0,500.0,200.0,500.0,300.0,500.0,200.0,300.0,300.0,500.0,300.0,0.0,500.0,0.0,300.0,400.0,500.0,500.0,300.0,400.0,300.0,200.0,500.0,400.0,0.0,400.0,200.0,300.0,300.0,300.0,100.0,300.0,500.0,300.0,500.0,100.0,400.0,300.0,500.0,500.0,400.0,400.0,0.0,400.0,200.0,400.0,200.0,300.0,500.0,300.0,500.0,400.0,400.0,400.0,500.0,300.0,300.0,500.0,500.0,200.0,400.0,400.0,200.0,500.0,300.0,300.0,200.0,200.0,200.0,200.0,300.0,200.0,500.0,200.0,400.0,300.0,300.0,300.0,400.0,100.0,400.0,500.0,200.0,400.0,0.0,100.0,500.0,300.0,300.0,400.0,0.0,500.0,400.0,400.0,400.0,500.0,500.0,400.0,400.0,400.0,500.0,400.0,500.0,500.0,300.0,300.0,500.0,300.0,400.0,0.0,300.0,400.0,500.0,200.0,500.0,300.0,500.0,400.0,0.0,500.0,500.0,100.0,200.0,400.0,500.0,500.0,400.0,300.0,400.0,500.0,200.0,300.0,300.0,400.0,300.0,500.0,500.0,300.0,300.0,500.0,300.0,500.0,400.0,400.0,300.0,400.0,400.0,200.0,400.0,500.0,400.0,300.0,300.0,300.0,300.0,300.0,400.0,0.0,500.0,200.0,500.0,300.0,400.0,500.0,500.0,500.0,100.0,300.0,400.0,300.0,500.0,300.0,500.0,300.0,300.0,400.0,400.0,0.0,500.0,400.0,300.0,200.0,500.0,400.0,500.0,400.0,200.0,200.0,400.0,400.0,100.0,300.0,500.0,100.0,400.0,300.0,300.0,500.0,500.0,300.0,300.0,400.0,100.0,0.0,200.0,400.0,400.0,400.0,200.0,400.0,500.0,300.0,0.0,300.0,300.0,400.0,400.0,500.0,500.0,400.0,300.0,300.0,400.0,200.0,300.0,400.0,400.0,500.0,200.0,300.0,500.0,400.0,200.0,200.0,500.0,400.0,500.0,400.0,300.0,400.0,300.0,300.0,500.0,200.0,0.0,400.0,400.0,400.0,400.0,200.0,500.0,500.0,200.0,300.0,300.0,300.0,300.0,500.0,300.0,300.0,300.0,300.0,300.0,500.0,400.0,300.0,400.0,400.0,400.0,300.0,400.0,100.0,500.0,400.0,400.0,400.0,400.0,300.0,400.0,300.0,300.0,200.0,400.0,400.0,500.0,100.0,0.0,300.0,500.0,400.0,400.0,400.0,300.0,400.0,400.0,500.0,200.0,400.0,300.0,300.0,0.0,200.0,300.0,300.0,200.0,500.0,200.0,400.0,300.0,300.0,200.0,500.0,200.0,200.0,500.0,300.0,300.0,500.0,300.0,300.0,200.0,400.0,400.0,300.0,400.0,400.0,300.0,300.0,400.0,500.0,400.0,400.0,400.0,400.0,400.0,0.0,500.0,400.0,400.0,400.0,500.0,300.0,400.0,500.0,500.0,300.0,400.0,300.0,200.0,400.0,0.0,300.0,400.0,200.0,400.0,400.0,300.0,400.0,100.0,400.0,400.0,400.0,100.0,300.0,200.0,400.0,300.0,300.0,400.0,400.0,400.0,300.0,300.0,400.0,400.0,-7750480.0,-80755.0
2008-03-04 16:00:00,300.0,300.0,400.0,100.0,100.0,200.0,300.0,400.0,300.0,400.0,500.0,100.0,100.0,200.0,100.0,300.0,400.0,100.0,500.0,300.0,500.0,400.0,400.0,500.0,300.0,400.0,500.0,200.0,300.0,500.0,100.0,300.0,400.0,400.0,300.0,400.0,400.0,400.0,300.0,100.0,400.0,500.0,500.0,500.0,400.0,200.0,400.0,400.0,200.0,300.0,400.0,200.0,300.0,400.0,500.0,500.0,300.0,400.0,500.0,500.0,200.0,300.0,500.0,400.0,300.0,200.0,300.0,300.0,400.0,500.0,500.0,500.0,200.0,300.0,500.0,300.0,400.0,300.0,200.0,300.0,400.0,100.0,400.0,500.0,300.0,500.0,0.0,500.0,0.0,500.0,200.0,200.0,200.0,400.0,500.0,500.0,200.0,500.0,500.0,300.0,500.0,0.0,200.0,500.0,300.0,500.0,400.0,200.0,300.0,200.0,400.0,500.0,200.0,300.0,300.0,500.0,300.0,500.0,500.0,100.0,500.0,200.0,500.0,300.0,200.0,400.0,500.0,300.0,0.0,500.0,0.0,200.0,500.0,500.0,500.0,300.0,300.0,400.0,300.0,500.0,300.0,0.0,500.0,100.0,400.0,200.0,300.0,100.0,400.0,500.0,200.0,500.0,100.0,400.0,200.0,500.0,500.0,400.0,500.0,0.0,500.0,300.0,300.0,300.0,200.0,500.0,200.0,500.0,400.0,400.0,300.0,400.0,400.0,300.0,500.0,500.0,100.0,300.0,300.0,200.0,400.0,400.0,200.0,100.0,300.0,200.0,300.0,200.0,200.0,500.0,300.0,400.0,200.0,200.0,200.0,300.0,100.0,500.0,500.0,200.0,400.0,0.0,100.0,500.0,200.0,400.0,300.0,100.0,500.0,500.0,400.0,400.0,500.0,500.0,300.0,500.0,300.0,500.0,400.0,500.0,400.0,400.0,400.0,400.0,300.0,300.0,0.0,300.0,500.0,500.0,200.0,500.0,300.0,500.0,500.0,0.0,500.0,400.0,200.0,200.0,300.0,500.0,400.0,300.0,300.0,500.0,500.0,300.0,400.0,300.0,500.0,200.0,500.0,500.0,200.0,400.0,500.0,400.0,500.0,400.0,400.0,200.0,500.0,300.0,200.0,300.0,500.0,300.0,400.0,400.0,400.0,200.0,200.0,300.0,0.0,500.0,300.0,500.0,200.0,300.0,500.0,400.0,500.0,0.0,300.0,400.0,200.0,400.0,400.0,500.0,400.0,400.0,400.0,400.0,0.0,500.0,300.0,300.0,300.0,500.0,300.0,500.0,500.0,100.0,300.0,300.0,300.0,0.0,200.0,500.0,200.0,400.0,200.0,400.0,500.0,500.0,400.0,200.0,400.0,100.0,100.0,100.0,300.0,400.0,500.0,200.0,400.0,500.0,200.0,0.0,400.0,300.0,400.0,300.0,400.0,500.0,400.0,200.0,400.0,300.0,300.0,200.0,300.0,300.0,500.0,200.0,400.0,500.0,300.0,300.0,300.0,500.0,300.0,400.0,500.0,300.0,400.0,200.0,200.0,500.0,300.0,0.0,300.0,300.0,300.0,300.0,100.0,400.0,500.0,300.0,400.0,400.0,400.0,400.0,500.0,300.0,400.0,200.0,400.0,200.0,500.0,300.0,400.0,500.0,500.0,300.0,400.0,400.0,100.0,400.0,300.0,500.0,300.0,500.0,200.0,300.0,200.0,400.0,300.0,500.0,300.0,500.0,0.0,0.0,200.0,500.0,400.0,400.0,300.0,200.0,500.0,300.0,500.0,100.0,500.0,400.0,400.0,0.0,100.0,200.0,200.0,300.0,500.0,300.0,300.0,200.0,200.0,300.0,500.0,200.0,200.0,500.0,300.0,400.0,500.0,400.0,300.0,200.0,500.0,400.0,400.0,300.0,400.0,300.0,400.0,300.0,500.0,500.0,300.0,500.0,300.0,300.0,0.0,500.0,300.0,500.0,500.0,500.0,200.0,500.0,500.0,500.0,400.0,400.0,400.0,100.0,300.0,0.0,300.0,500.0,100.0,500.0,500.0,400.0,500.0,100.0,300.0,400.0,300.0,100.0,400.0,100.0,300.0,400.0,400.0,400.0,300.0,300.0,400.0,200.0,300.0,400.0,-7642008.0,-116026.0
2008-03-05 16:00:00,200.0,400.0,500.0,0.0,0.0,200.0,400.0,300.0,200.0,400.0,500.0,0.0,0.0,200.0,0.0,200.0,500.0,0.0,400.0,200.0,500.0,400.0,500.0,500.0,200.0,400.0,500.0,100.0,200.0,400.0,0.0,300.0,500.0,400.0,200.0,400.0,400.0,500.0,200.0,100.0,400.0,400.0,500.0,500.0,400.0,100.0,500.0,300.0,100.0,300.0,400.0,100.0,200.0,300.0,500.0,500.0,200.0,400.0,500.0,400.0,100.0,200.0,500.0,300.0,300.0,100.0,200.0,200.0,400.0,500.0,500.0,500.0,200.0,200.0,500.0,200.0,400.0,400.0,200.0,200.0,500.0,0.0,500.0,500.0,200.0,500.0,0.0,500.0,0.0,500.0,100.0,100.0,200.0,500.0,500.0,500.0,100.0,500.0,400.0,200.0,400.0,0.0,100.0,400.0,200.0,500.0,500.0,100.0,400.0,100.0,400.0,500.0,200.0,400.0,400.0,500.0,200.0,400.0,500.0,100.0,400.0,100.0,500.0,400.0,100.0,500.0,400.0,400.0,0.0,500.0,0.0,200.0,500.0,500.0,500.0,300.0,200.0,400.0,400.0,500.0,200.0,0.0,500.0,0.0,500.0,100.0,200.0,0.0,400.0,500.0,100.0,400.0,0.0,300.0,200.0,500.0,500.0,400.0,500.0,100.0,500.0,400.0,300.0,300.0,100.0,500.0,100.0,500.0,400.0,400.0,200.0,300.0,500.0,400.0,500.0,500.0,100.0,300.0,200.0,200.0,300.0,500.0,100.0,0.0,300.0,200.0,400.0,100.0,200.0,500.0,400.0,400.0,100.0,100.0,200.0,200.0,0.0,500.0,500.0,100.0,500.0,0.0,100.0,500.0,200.0,500.0,200.0,100.0,500.0,500.0,300.0,500.0,500.0,500.0,200.0,500.0,200.0,500.0,300.0,500.0,300.0,400.0,500.0,300.0,400.0,200.0,0.0,300.0,500.0,400.0,300.0,500.0,300.0,500.0,500.0,0.0,500.0,400.0,300.0,100.0,200.0,400.0,300.0,200.0,200.0,500.0,500.0,400.0,400.0,400.0,500.0,100.0,500.0,500.0,100.0,500.0,500.0,500.0,500.0,300.0,500.0,100.0,500.0,200.0,100.0,300.0,500.0,200.0,400.0,400.0,500.0,100.0,100.0,200.0,0.0,500.0,400.0,500.0,100.0,200.0,500.0,400.0,500.0,0.0,300.0,400.0,100.0,300.0,500.0,500.0,500.0,500.0,500.0,300.0,0.0,500.0,200.0,300.0,400.0,400.0,200.0,500.0,500.0,0.0,400.0,200.0,200.0,0.0,100.0,400.0,200.0,300.0,100.0,500.0,500.0,400.0,400.0,100.0,400.0,100.0,100.0,100.0,300.0,400.0,500.0,100.0,400.0,500.0,100.0,0.0,500.0,200.0,500.0,200.0,300.0,500.0,400.0,100.0,300.0,300.0,400.0,100.0,200.0,200.0,500.0,100.0,500.0,500.0,200.0,400.0,400.0,500.0,200.0,300.0,500.0,300.0,300.0,200.0,100.0,400.0,400.0,0.0,200.0,200.0,200.0,200.0,100.0,300.0,500.0,300.0,500.0,400.0,400.0,500.0,500.0,200.0,400.0,100.0,500.0,100.0,500.0,200.0,500.0,500.0,500.0,200.0,500.0,300.0,0.0,400.0,200.0,500.0,200.0,500.0,100.0,200.0,100.0,500.0,400.0,500.0,200.0,500.0,0.0,0.0,100.0,500.0,300.0,400.0,200.0,100.0,500.0,200.0,500.0,0.0,500.0,400.0,400.0,100.0,0.0,100.0,100.0,300.0,500.0,400.0,300.0,100.0,100.0,300.0,500.0,200.0,200.0,500.0,400.0,500.0,500.0,500.0,300.0,200.0,400.0,500.0,500.0,200.0,400.0,300.0,400.0,200.0,400.0,500.0,300.0,500.0,200.0,200.0,0.0,400.0,200.0,500.0,400.0,500.0,100.0,500.0,500.0,400.0,500.0,400.0,500.0,0.0,200.0,0.0,400.0,500.0,0.0,500.0,500.0,500.0,500.0,200.0,200.0,300.0,200.0,0.0,400.0,100.0,200.0,500.0,500.0,300.0,200.0,200.0,500.0,100.0,300.0,300.0,-7220425.0,-52808.0
2008-03-06 16:00:00,100.0,500.0,500.0,0.0,0.0,100.0,500.0,200.0,200.0,500.0,500.0,0.0,0.0,200.0,100.0,200.0,500.0,0.0,300.0,100.0,500.0,400.0,500.0,500.0,100.0,400.0,500.0,0.0,100.0,400.0,0.0,200.0,500.0,500.0,100.0,500.0,500.0,500.0,200.0,0.0,400.0,300.0,500.0,500.0,300.0,0.0,500.0,300.0,0.0,200.0,400.0,0.0,100.0,200.0,500.0,500.0,100.0,400.0,500.0,300.0,200.0,100.0,500.0,300.0,200.0,0.0,100.0,200.0,400.0,500.0,500.0,500.0,100.0,100.0,500.0,100.0,500.0,500.0,100.0,100.0,500.0,0.0,500.0,500.0,100.0,500.0,0.0,500.0,0.0,500.0,100.0,0.0,100.0,500.0,500.0,500.0,0.0,500.0,400.0,200.0,400.0,0.0,100.0,400.0,100.0,500.0,400.0,100.0,500.0,0.0,300.0,500.0,300.0,400.0,500.0,500.0,200.0,300.0,500.0,100.0,300.0,0.0,500.0,500.0,0.0,500.0,400.0,500.0,0.0,500.0,0.0,200.0,500.0,400.0,500.0,400.0,100.0,500.0,500.0,500.0,100.0,0.0,500.0,0.0,500.0,0.0,100.0,0.0,500.0,500.0,0.0,300.0,0.0,300.0,200.0,500.0,500.0,400.0,500.0,200.0,500.0,500.0,300.0,400.0,0.0,500.0,200.0,500.0,400.0,400.0,100.0,200.0,500.0,500.0,500.0,500.0,200.0,200.0,100.0,100.0,300.0,500.0,0.0,0.0,400.0,300.0,500.0,0.0,200.0,500.0,500.0,400.0,0.0,0.0,200.0,200.0,100.0,500.0,500.0,100.0,500.0,0.0,0.0,500.0,100.0,500.0,200.0,200.0,500.0,500.0,200.0,500.0,500.0,500.0,100.0,500.0,100.0,500.0,200.0,500.0,300.0,500.0,500.0,200.0,500.0,100.0,100.0,300.0,500.0,400.0,400.0,500.0,400.0,500.0,500.0,0.0,500.0,400.0,400.0,0.0,200.0,300.0,200.0,100.0,100.0,500.0,500.0,500.0,400.0,500.0,500.0,0.0,500.0,500.0,0.0,500.0,500.0,500.0,500.0,200.0,500.0,100.0,500.0,200.0,0.0,200.0,500.0,100.0,500.0,400.0,500.0,0.0,200.0,100.0,0.0,500.0,500.0,500.0,0.0,200.0,500.0,400.0,500.0,0.0,300.0,400.0,0.0,200.0,500.0,500.0,500.0,500.0,500.0,200.0,0.0,500.0,100.0,300.0,500.0,400.0,100.0,500.0,500.0,0.0,500.0,100.0,200.0,0.0,0.0,400.0,300.0,300.0,0.0,500.0,500.0,400.0,500.0,0.0,400.0,200.0,200.0,200.0,300.0,400.0,500.0,200.0,400.0,500.0,0.0,0.0,500.0,200.0,500.0,100.0,200.0,500.0,400.0,0.0,200.0,300.0,500.0,0.0,100.0,100.0,500.0,0.0,500.0,500.0,100.0,500.0,500.0,500.0,100.0,200.0,500.0,200.0,300.0,100.0,100.0,400.0,500.0,0.0,100.0,100.0,100.0,100.0,200.0,200.0,500.0,400.0,500.0,400.0,500.0,500.0,500.0,200.0,500.0,0.0,500.0,0.0,400.0,100.0,500.0,500.0,500.0,100.0,500.0,300.0,0.0,400.0,200.0,500.0,200.0,500.0,100.0,200.0,0.0,500.0,500.0,500.0,100.0,500.0,0.0,0.0,0.0,500.0,300.0,400.0,100.0,0.0,500.0,100.0,500.0,0.0,500.0,400.0,500.0,100.0,0.0,0.0,0.0,400.0,500.0,500.0,300.0,0.0,0.0,400.0,500.0,300.0,100.0,500.0,400.0,500.0,400.0,500.0,300.0,200.0,300.0,500.0,500.0,100.0,400.0,300.0,400.0,200.0,300.0,500.0,300.0,500.0,100.0,100.0,0.0,300.0,100.0,500.0,300.0,500.0,0.0,500.0,500.0,400.0,500.0,400.0,500.0,0.0,100.0,0.0,300.0,500.0,0.0,500.0,500.0,500.0,500.0,300.0,200.0,300.0,100.0,0.0,500.0,200.0,100.0,500.0,500.0,200.0,100.0,200.0,500.0,0.0,300.0,300.0,-7018501.0,-230530.0
2008-03-07 16:00:00,0.0,500.0,500.0,0.0,0.0,0.0,500.0,100.0,100.0,500.0,500.0,0.0,0.0,200.0,100.0,100.0,500.0,0.0,200.0,0.0,400.0,500.0,500.0,500.0,0.0,400.0,500.0,0.0,0.0,300.0,0.0,100.0,400.0,500.0,0.0,500.0,500.0,500.0,100.0,0.0,300.0,200.0,400.0,400.0,200.0,0.0,400.0,200.0,0.0,100.0,300.0,0.0,0.0,100.0,400.0,400.0,0.0,300.0,500.0,200.0,100.0,0.0,400.0,200.0,200.0,0.0,0.0,100.0,300.0,500.0,500.0,500.0,0.0,0.0,500.0,0.0,500.0,500.0,0.0,0.0,400.0,0.0,500.0,500.0,0.0,400.0,0.0,500.0,0.0,500.0,200.0,0.0,0.0,500.0,500.0,500.0,0.0,500.0,300.0,100.0,300.0,0.0,0.0,400.0,0.0,500.0,300.0,100.0,500.0,0.0,200.0,500.0,400.0,300.0,500.0,400.0,100.0,200.0,400.0,100.0,200.0,0.0,400.0,500.0,0.0,500.0,400.0,500.0,0.0,400.0,0.0,100.0,400.0,300.0,400.0,400.0,0.0,500.0,500.0,400.0,0.0,0.0,500.0,0.0,500.0,0.0,0.0,0.0,500.0,500.0,0.0,200.0,0.0,200.0,200.0,500.0,400.0,300.0,400.0,300.0,400.0,500.0,200.0,400.0,0.0,500.0,200.0,500.0,400.0,400.0,0.0,100.0,400.0,500.0,400.0,500.0,200.0,100.0,0.0,0.0,200.0,400.0,0.0,0.0,500.0,400.0,500.0,0.0,100.0,500.0,500.0,400.0,0.0,0.0,300.0,100.0,100.0,400.0,500.0,100.0,400.0,0.0,0.0,400.0,0.0,500.0,100.0,300.0,500.0,400.0,100.0,400.0,400.0,400.0,0.0,500.0,0.0,500.0,100.0,500.0,300.0,500.0,500.0,100.0,500.0,0.0,200.0,300.0,500.0,300.0,400.0,500.0,300.0,400.0,400.0,0.0,500.0,400.0,400.0,0.0,100.0,200.0,100.0,0.0,0.0,400.0,400.0,500.0,400.0,500.0,500.0,0.0,400.0,400.0,0.0,500.0,400.0,500.0,500.0,100.0,500.0,200.0,400.0,100.0,0.0,100.0,500.0,0.0,500.0,400.0,400.0,0.0,100.0,0.0,0.0,400.0,400.0,500.0,0.0,200.0,500.0,300.0,400.0,0.0,200.0,300.0,0.0,100.0,500.0,500.0,400.0,500.0,400.0,100.0,0.0,500.0,0.0,200.0,500.0,400.0,0.0,500.0,500.0,0.0,500.0,0.0,100.0,0.0,0.0,300.0,300.0,200.0,0.0,500.0,500.0,300.0,500.0,0.0,400.0,300.0,300.0,200.0,200.0,400.0,500.0,200.0,300.0,500.0,0.0,0.0,500.0,100.0,500.0,0.0,100.0,500.0,400.0,0.0,200.0,200.0,500.0,0.0,0.0,0.0,500.0,0.0,400.0,500.0,0.0,500.0,500.0,500.0,0.0,100.0,500.0,100.0,200.0,0.0,200.0,300.0,500.0,0.0,0.0,0.0,0.0,0.0,200.0,100.0,400.0,400.0,500.0,400.0,400.0,400.0,400.0,100.0,500.0,0.0,400.0,0.0,300.0,0.0,500.0,500.0,500.0,0.0,400.0,200.0,0.0,400.0,100.0,400.0,100.0,500.0,100.0,100.0,0.0,500.0,500.0,500.0,0.0,400.0,0.0,0.0,0.0,400.0,200.0,400.0,0.0,0.0,500.0,0.0,400.0,0.0,400.0,300.0,500.0,100.0,0.0,0.0,0.0,400.0,500.0,500.0,200.0,0.0,0.0,400.0,500.0,300.0,0.0,400.0,400.0,400.0,300.0,400.0,300.0,100.0,200.0,500.0,500.0,0.0,300.0,200.0,400.0,100.0,200.0,400.0,300.0,400.0,0.0,0.0,0.0,200.0,0.0,400.0,200.0,400.0,0.0,500.0,400.0,300.0,500.0,400.0,500.0,0.0,0.0,0.0,200.0,500.0,0.0,500.0,500.0,500.0,500.0,200.0,200.0,200.0,0.0,0.0,500.0,200.0,0.0,500.0,500.0,100.0,0.0,200.0,500.0,0.0,200.0,200.0,-6074563.0,-321703.0
2008-03-10 16:00:00,0.0,500.0,500.0,0.0,0.0,0.0,400.0,0.0,200.0,500.0,500.0,0.0,0.0,200.0,100.0,100.0,500.0,0.0,100.0,0.0,400.0,500.0,500.0,500.0,0.0,400.0,500.0,0.0,0.0,200.0,0.0,100.0,300.0,500.0,0.0,500.0,500.0,400.0,100.0,0.0,200.0,100.0,400.0,300.0,100.0,0.0,300.0,100.0,0.0,100.0,300.0,0.0,0.0,100.0,300.0,300.0,0.0,300.0,500.0,200.0,100.0,0.0,300.0,200.0,200.0,0.0,0.0,100.0,200.0,400.0,400.0,500.0,0.0,0.0,400.0,0.0,400.0,500.0,0.0,0.0,300.0,0.0,500.0,500.0,0.0,400.0,0.0,400.0,0.0,500.0,300.0,0.0,100.0,400.0,400.0,500.0,0.0,500.0,200.0,100.0,200.0,0.0,0.0,300.0,0.0,500.0,200.0,100.0,500.0,0.0,200.0,500.0,500.0,200.0,500.0,300.0,100.0,100.0,300.0,100.0,100.0,0.0,300.0,500.0,0.0,400.0,300.0,400.0,0.0,300.0,0.0,100.0,300.0,200.0,300.0,400.0,0.0,500.0,500.0,300.0,0.0,0.0,400.0,0.0,500.0,0.0,0.0,0.0,500.0,400.0,0.0,100.0,0.0,200.0,200.0,500.0,300.0,200.0,300.0,400.0,300.0,500.0,200.0,400.0,0.0,400.0,300.0,500.0,500.0,400.0,0.0,0.0,300.0,500.0,300.0,400.0,200.0,0.0,0.0,0.0,100.0,300.0,0.0,0.0,500.0,500.0,500.0,0.0,100.0,500.0,500.0,500.0,0.0,0.0,400.0,100.0,200.0,300.0,400.0,100.0,300.0,0.0,0.0,400.0,0.0,500.0,100.0,400.0,500.0,300.0,100.0,300.0,400.0,300.0,0.0,500.0,0.0,500.0,100.0,500.0,300.0,500.0,500.0,0.0,500.0,0.0,300.0,400.0,400.0,200.0,400.0,500.0,200.0,300.0,400.0,0.0,400.0,300.0,500.0,0.0,100.0,100.0,0.0,0.0,0.0,300.0,300.0,500.0,400.0,400.0,500.0,0.0,300.0,300.0,0.0,500.0,400.0,500.0,400.0,100.0,500.0,300.0,300.0,100.0,0.0,0.0,400.0,0.0,500.0,400.0,300.0,0.0,100.0,0.0,0.0,300.0,300.0,500.0,0.0,300.0,400.0,200.0,300.0,100.0,200.0,400.0,0.0,0.0,500.0,400.0,300.0,400.0,300.0,0.0,0.0,500.0,0.0,200.0,500.0,400.0,0.0,400.0,500.0,0.0,500.0,0.0,200.0,0.0,0.0,200.0,400.0,300.0,0.0,500.0,500.0,200.0,500.0,0.0,500.0,200.0,400.0,200.0,200.0,500.0,400.0,300.0,300.0,500.0,0.0,0.0,500.0,100.0,500.0,0.0,0.0,400.0,500.0,0.0,300.0,200.0,500.0,0.0,0.0,0.0,400.0,0.0,300.0,500.0,0.0,500.0,500.0,400.0,0.0,0.0,400.0,0.0,200.0,0.0,200.0,200.0,400.0,0.0,0.0,0.0,0.0,0.0,200.0,0.0,300.0,500.0,500.0,300.0,400.0,300.0,300.0,100.0,500.0,0.0,300.0,0.0,200.0,0.0,400.0,500.0,400.0,0.0,300.0,200.0,0.0,400.0,100.0,300.0,100.0,500.0,100.0,100.0,0.0,500.0,500.0,500.0,0.0,300.0,0.0,0.0,0.0,400.0,200.0,500.0,0.0,0.0,400.0,0.0,300.0,0.0,300.0,300.0,500.0,100.0,0.0,0.0,0.0,500.0,500.0,500.0,200.0,0.0,0.0,400.0,400.0,300.0,0.0,300.0,400.0,300.0,200.0,300.0,400.0,200.0,100.0,500.0,500.0,0.0,200.0,200.0,400.0,100.0,100.0,300.0,400.0,400.0,0.0,0.0,0.0,100.0,0.0,300.0,100.0,300.0,0.0,400.0,400.0,200.0,500.0,400.0,500.0,0.0,0.0,0.0,200.0,500.0,0.0,400.0,500.0,500.0,500.0,200.0,300.0,200.0,0.0,0.0,500.0,200.0,0.0,500.0,400.0,100.0,0.0,300.0,500.0,0.0,200.0,100.0,-5608946.0,-454785.0
2008-03-11 16:00:00,0.0,500.0,400.0,0.0,0.0,0.0,300.0,0.0,300.0,400.0,400.0,0.0,0.0,200.0,100.0,100.0,400.0,0.0,0.0,0.0,400.0,400.0,500.0,400.0,0.0,300.0,400.0,0.0,0.0,100.0,0.0,100.0,200.0,500.0,0.0,500.0,500.0,300.0,100.0,0.0,100.0,0.0,300.0,200.0,0.0,0.0,200.0,100.0,0.0,100.0,200.0,0.0,0.0,0.0,200.0,200.0,0.0,200.0,500.0,100.0,100.0,0.0,200.0,100.0,100.0,0.0,0.0,100.0,200.0,300.0,300.0,400.0,0.0,0.0,300.0,0.0,300.0,400.0,0.0,0.0,200.0,0.0,500.0,400.0,0.0,400.0,0.0,300.0,0.0,500.0,300.0,0.0,100.0,300.0,300.0,500.0,0.0,500.0,100.0,100.0,100.0,0.0,0.0,200.0,0.0,500.0,100.0,100.0,400.0,0.0,100.0,400.0,500.0,200.0,400.0,200.0,100.0,0.0,200.0,100.0,0.0,0.0,200.0,500.0,0.0,300.0,200.0,300.0,0.0,200.0,0.0,100.0,200.0,100.0,200.0,400.0,0.0,500.0,500.0,200.0,0.0,0.0,300.0,0.0,400.0,0.0,0.0,0.0,500.0,300.0,0.0,0.0,0.0,100.0,200.0,400.0,200.0,100.0,200.0,500.0,200.0,500.0,200.0,400.0,0.0,300.0,400.0,500.0,400.0,300.0,0.0,0.0,200.0,400.0,200.0,300.0,200.0,0.0,0.0,0.0,100.0,200.0,0.0,0.0,500.0,400.0,400.0,0.0,100.0,400.0,500.0,400.0,0.0,0.0,400.0,100.0,300.0,300.0,300.0,100.0,200.0,0.0,0.0,300.0,0.0,400.0,100.0,400.0,400.0,200.0,0.0,200.0,300.0,200.0,0.0,500.0,0.0,500.0,0.0,400.0,400.0,500.0,500.0,0.0,500.0,0.0,400.0,300.0,300.0,100.0,500.0,400.0,100.0,200.0,300.0,0.0,300.0,300.0,500.0,0.0,100.0,0.0,0.0,0.0,0.0,200.0,200.0,400.0,300.0,300.0,400.0,0.0,200.0,200.0,0.0,500.0,300.0,400.0,300.0,0.0,500.0,400.0,200.0,100.0,0.0,0.0,300.0,0.0,400.0,300.0,200.0,0.0,100.0,0.0,0.0,200.0,200.0,400.0,0.0,300.0,300.0,200.0,200.0,200.0,200.0,300.0,0.0,100.0,400.0,300.0,200.0,300.0,200.0,0.0,0.0,400.0,0.0,200.0,500.0,300.0,0.0,300.0,400.0,0.0,500.0,0.0,200.0,0.0,0.0,100.0,400.0,200.0,0.0,400.0,400.0,100.0,400.0,0.0,500.0,300.0,400.0,200.0,200.0,400.0,300.0,400.0,200.0,400.0,0.0,0.0,500.0,100.0,400.0,0.0,0.0,300.0,400.0,0.0,300.0,200.0,500.0,0.0,0.0,0.0,300.0,0.0,200.0,500.0,0.0,500.0,500.0,300.0,0.0,0.0,300.0,0.0,100.0,0.0,200.0,100.0,300.0,0.0,0.0,0.0,0.0,0.0,200.0,0.0,200.0,400.0,400.0,200.0,300.0,200.0,200.0,200.0,500.0,0.0,200.0,0.0,100.0,0.0,300.0,400.0,300.0,0.0,200.0,100.0,0.0,500.0,100.0,200.0,100.0,400.0,100.0,100.0,0.0,400.0,500.0,400.0,0.0,200.0,0.0,0.0,0.0,300.0,100.0,400.0,0.0,0.0,300.0,0.0,200.0,0.0,200.0,200.0,500.0,100.0,0.0,0.0,0.0,500.0,500.0,500.0,200.0,0.0,0.0,400.0,300.0,400.0,0.0,200.0,500.0,200.0,100.0,200.0,500.0,100.0,0.0,400.0,500.0,0.0,200.0,200.0,400.0,100.0,0.0,200.0,400.0,400.0,0.0,0.0,0.0,0.0,0.0,200.0,0.0,200.0,0.0,300.0,300.0,100.0,400.0,300.0,500.0,0.0,0.0,0.0,100.0,400.0,0.0,300.0,400.0,400.0,500.0,200.0,300.0,100.0,0.0,0.0,400.0,200.0,0.0,400.0,300.0,0.0,0.0,400.0,500.0,0.0,200.0,100.0,-4723811.0,-236056.0
2008-03-12 16:00:00,100.0,500.0,400.0,0.0,0.0,100.0,300.0,0.0,400.0,400.0,400.0,100.0,100.0,200.0,100.0,100.0,400.0,0.0,100.0,100.0,400.0,400.0,500.0,400.0,0.0,300.0,400.0,0.0,100.0,100.0,100.0,100.0,200.0,500.0,100.0,500.0,500.0,200.0,100.0,100.0,100.0,0.0,300.0,200.0,0.0,100.0,200.0,100.0,0.0,0.0,200.0,100.0,0.0,100.0,100.0,200.0,100.0,200.0,500.0,100.0,200.0,100.0,200.0,200.0,0.0,0.0,0.0,100.0,100.0,300.0,200.0,400.0,0.0,100.0,300.0,0.0,200.0,300.0,100.0,0.0,200.0,0.0,500.0,400.0,0.0,400.0,0.0,300.0,0.0,500.0,400.0,0.0,200.0,300.0,200.0,500.0,100.0,500.0,200.0,100.0,200.0,0.0,100.0,200.0,100.0,500.0,0.0,100.0,400.0,100.0,0.0,400.0,500.0,100.0,300.0,200.0,200.0,0.0,100.0,100.0,0.0,0.0,200.0,500.0,100.0,300.0,300.0,300.0,0.0,200.0,100.0,200.0,100.0,0.0,100.0,500.0,0.0,500.0,500.0,200.0,100.0,0.0,200.0,100.0,400.0,100.0,100.0,0.0,500.0,300.0,100.0,100.0,100.0,200.0,200.0,300.0,100.0,200.0,100.0,500.0,200.0,500.0,100.0,500.0,0.0,300.0,500.0,500.0,400.0,300.0,0.0,0.0,100.0,400.0,200.0,300.0,200.0,0.0,100.0,100.0,100.0,200.0,100.0,100.0,500.0,400.0,400.0,0.0,100.0,400.0,500.0,400.0,0.0,100.0,300.0,200.0,400.0,200.0,300.0,200.0,200.0,0.0,0.0,300.0,0.0,400.0,100.0,500.0,300.0,200.0,100.0,200.0,300.0,200.0,100.0,400.0,100.0,500.0,100.0,400.0,500.0,500.0,500.0,100.0,500.0,0.0,500.0,300.0,300.0,100.0,500.0,400.0,200.0,200.0,200.0,100.0,300.0,300.0,400.0,0.0,100.0,100.0,0.0,100.0,0.0,100.0,100.0,300.0,300.0,300.0,400.0,0.0,100.0,200.0,100.0,500.0,300.0,400.0,300.0,100.0,500.0,500.0,100.0,200.0,0.0,0.0,200.0,0.0,400.0,300.0,200.0,0.0,100.0,100.0,0.0,100.0,200.0,400.0,100.0,400.0,300.0,200.0,200.0,300.0,200.0,300.0,100.0,200.0,400.0,200.0,100.0,200.0,200.0,0.0,0.0,400.0,100.0,200.0,500.0,400.0,100.0,200.0,400.0,0.0,500.0,100.0,300.0,100.0,100.0,100.0,500.0,300.0,0.0,400.0,400.0,200.0,400.0,0.0,500.0,300.0,500.0,200.0,100.0,400.0,300.0,500.0,200.0,400.0,100.0,0.0,500.0,100.0,400.0,0.0,0.0,300.0,300.0,0.0,300.0,200.0,500.0,100.0,100.0,100.0,300.0,100.0,200.0,500.0,0.0,500.0,500.0,300.0,0.0,0.0,300.0,0.0,200.0,0.0,200.0,200.0,200.0,0.0,100.0,100.0,100.0,0.0,200.0,100.0,200.0,300.0,400.0,300.0,200.0,100.0,200.0,300.0,500.0,100.0,200.0,0.0,0.0,0.0,300.0,400.0,300.0,0.0,100.0,100.0,0.0,500.0,200.0,200.0,200.0,400.0,200.0,100.0,100.0,400.0,500.0,400.0,100.0,100.0,0.0,0.0,100.0,300.0,100.0,400.0,100.0,100.0,200.0,100.0,100.0,100.0,100.0,200.0,500.0,100.0,0.0,100.0,100.0,500.0,500.0,500.0,200.0,100.0,0.0,500.0,200.0,500.0,0.0,200.0,500.0,200.0,0.0,200.0,500.0,100.0,100.0,400.0,500.0,0.0,200.0,200.0,500.0,100.0,0.0,200.0,400.0,400.0,100.0,0.0,0.0,0.0,0.0,100.0,0.0,100.0,100.0,300.0,200.0,200.0,400.0,200.0,500.0,0.0,100.0,0.0,100.0,400.0,0.0,300.0,400.0,400.0,500.0,100.0,400.0,200.0,0.0,100.0,400.0,200.0,0.0,300.0,300.0,0.0,100.0,500.0,500.0,100.0,100.0,200.0,-4960203.0,-259931.0
2008-03-13 16:00:00,200.0,500.0,400.0,0.0,0.0,100.0,300.0,100.0,400.0,400.0,400.0,200.0,200.0,100.0,0.0,0.0,300.0,0.0,200.0,200.0,400.0,400.0,500.0,400.0,0.0,200.0,300.0,100.0,200.0,0.0,200.0,100.0,100.0,500.0,200.0,500.0,500.0,200.0,0.0,200.0,0.0,0.0,300.0,100.0,0.0,200.0,100.0,0.0,0.0,0.0,200.0,200.0,0.0,200.0,0.0,200.0,200.0,200.0,400.0,100.0,200.0,200.0,100.0,100.0,0.0,0.0,0.0,0.0,0.0,300.0,100.0,400.0,0.0,200.0,300.0,0.0,200.0,200.0,100.0,0.0,100.0,0.0,500.0,300.0,0.0,400.0,0.0,300.0,0.0,400.0,400.0,0.0,300.0,300.0,200.0,400.0,200.0,500.0,200.0,100.0,200.0,0.0,100.0,100.0,200.0,500.0,0.0,0.0,300.0,200.0,100.0,400.0,500.0,0.0,300.0,200.0,200.0,0.0,0.0,0.0,0.0,0.0,100.0,500.0,200.0,300.0,200.0,300.0,0.0,200.0,200.0,200.0,0.0,100.0,0.0,500.0,0.0,500.0,500.0,200.0,200.0,0.0,200.0,200.0,400.0,200.0,200.0,0.0,500.0,300.0,200.0,100.0,200.0,200.0,100.0,200.0,0.0,200.0,0.0,500.0,200.0,500.0,0.0,400.0,0.0,300.0,400.0,500.0,300.0,300.0,0.0,0.0,100.0,400.0,200.0,200.0,200.0,0.0,200.0,200.0,0.0,100.0,200.0,200.0,500.0,400.0,400.0,100.0,0.0,400.0,500.0,300.0,0.0,200.0,200.0,200.0,400.0,200.0,300.0,200.0,100.0,100.0,0.0,300.0,100.0,300.0,100.0,500.0,200.0,200.0,200.0,100.0,200.0,200.0,200.0,300.0,200.0,500.0,200.0,400.0,500.0,500.0,500.0,100.0,500.0,100.0,500.0,300.0,300.0,0.0,500.0,400.0,200.0,100.0,100.0,200.0,300.0,200.0,300.0,0.0,100.0,100.0,0.0,100.0,100.0,0.0,100.0,200.0,300.0,300.0,300.0,100.0,0.0,200.0,200.0,500.0,300.0,300.0,200.0,200.0,500.0,500.0,0.0,100.0,0.0,0.0,100.0,0.0,400.0,200.0,200.0,0.0,0.0,100.0,0.0,0.0,200.0,400.0,200.0,400.0,200.0,100.0,100.0,300.0,100.0,300.0,200.0,300.0,300.0,100.0,0.0,200.0,200.0,0.0,0.0,400.0,200.0,200.0,500.0,400.0,200.0,100.0,400.0,0.0,500.0,200.0,300.0,200.0,200.0,0.0,500.0,300.0,0.0,400.0,400.0,200.0,400.0,0.0,400.0,200.0,500.0,200.0,100.0,400.0,200.0,500.0,200.0,300.0,200.0,0.0,400.0,0.0,300.0,100.0,0.0,300.0,300.0,0.0,300.0,200.0,500.0,200.0,200.0,200.0,300.0,100.0,200.0,500.0,0.0,500.0,500.0,200.0,0.0,0.0,200.0,0.0,200.0,0.0,100.0,200.0,100.0,0.0,200.0,100.0,100.0,0.0,200.0,100.0,200.0,200.0,400.0,300.0,100.0,0.0,200.0,300.0,500.0,200.0,200.0,0.0,0.0,100.0,300.0,400.0,300.0,100.0,0.0,0.0,0.0,500.0,200.0,100.0,200.0,400.0,200.0,0.0,100.0,400.0,500.0,400.0,100.0,0.0,100.0,0.0,200.0,300.0,0.0,400.0,200.0,200.0,100.0,200.0,0.0,100.0,0.0,200.0,500.0,200.0,0.0,200.0,200.0,500.0,500.0,500.0,200.0,200.0,0.0,500.0,100.0,500.0,0.0,200.0,500.0,100.0,0.0,200.0,400.0,100.0,100.0,300.0,400.0,0.0,100.0,200.0,500.0,0.0,0.0,200.0,400.0,400.0,200.0,0.0,0.0,0.0,100.0,0.0,0.0,100.0,200.0,200.0,200.0,100.0,400.0,100.0,500.0,0.0,200.0,0.0,200.0,400.0,0.0,300.0,300.0,400.0,500.0,0.0,400.0,200.0,0.0,200.0,300.0,200.0,0.0,200.0,300.0,0.0,200.0,500.0,400.0,200.0,100.0,100.0,-4794069.0,-209061.0
2008-03-14 16:00:00,300.0,500.0,400.0,0.0,100.0,200.0,300.0,200.0,500.0,400.0,400.0,300.0,200.0,100.0,0.0,0.0,300.0,100.0,200.0,300.0,400.0,300.0,500.0,400.0,100.0,200.0,300.0,200.0,300.0,100.0,300.0,100.0,200.0,500.0,300.0,500.0,500.0,200.0,100.0,300.0,0.0,100.0,400.0,200.0,0.0,300.0,200.0,0.0,0.0,0.0,300.0,300.0,0.0,300.0,0.0,300.0,300.0,300.0,400.0,200.0,300.0,300.0,200.0,200.0,100.0,100.0,0.0,0.0,0.0,300.0,100.0,400.0,0.0,200.0,300.0,0.0,200.0,200.0,100.0,0.0,200.0,0.0,500.0,300.0,100.0,500.0,0.0,300.0,0.0,300.0,400.0,0.0,400.0,300.0,200.0,400.0,300.0,400.0,300.0,200.0,300.0,0.0,100.0,0.0,300.0,400.0,0.0,0.0,200.0,300.0,200.0,400.0,500.0,0.0,300.0,300.0,300.0,0.0,0.0,0.0,0.0,0.0,200.0,500.0,200.0,300.0,200.0,300.0,0.0,300.0,300.0,300.0,100.0,200.0,0.0,500.0,0.0,500.0,500.0,300.0,300.0,0.0,200.0,200.0,400.0,300.0,300.0,0.0,500.0,300.0,300.0,100.0,300.0,300.0,100.0,200.0,100.0,300.0,0.0,500.0,300.0,500.0,0.0,400.0,0.0,300.0,400.0,500.0,300.0,300.0,100.0,0.0,200.0,400.0,200.0,100.0,200.0,0.0,300.0,300.0,0.0,100.0,300.0,300.0,500.0,400.0,400.0,200.0,100.0,400.0,500.0,200.0,100.0,300.0,200.0,300.0,500.0,300.0,300.0,200.0,100.0,200.0,0.0,400.0,200.0,200.0,200.0,500.0,200.0,300.0,300.0,200.0,200.0,300.0,300.0,300.0,300.0,500.0,300.0,400.0,500.0,500.0,500.0,200.0,500.0,200.0,500.0,400.0,300.0,0.0,500.0,400.0,300.0,200.0,200.0,300.0,300.0,200.0,300.0,0.0,200.0,200.0,0.0,200.0,200.0,0.0,200.0,200.0,300.0,300.0,300.0,100.0,0.0,300.0,300.0,500.0,400.0,200.0,200.0,300.0,500.0,500.0,0.0,200.0,0.0,0.0,0.0,0.0,400.0,200.0,200.0,0.0,0.0,200.0,0.0,0.0,300.0,400.0,300.0,400.0,100.0,200.0,100.0,400.0,100.0,400.0,300.0,400.0,300.0,0.0,0.0,100.0,300.0,0.0,0.0,400.0,300.0,300.0,500.0,400.0,300.0,100.0,400.0,0.0,500.0,300.0,400.0,300.0,300.0,0.0,500.0,400.0,0.0,400.0,400.0,300.0,400.0,100.0,300.0,200.0,500.0,300.0,200.0,400.0,200.0,500.0,300.0,300.0,300.0,100.0,300.0,100.0,300.0,200.0,100.0,300.0,300.0,0.0,300.0,300.0,500.0,300.0,300.0,300.0,300.0,100.0,300.0,500.0,0.0,500.0,500.0,100.0,0.0,0.0,200.0,0.0,300.0,100.0,100.0,300.0,0.0,0.0,300.0,100.0,200.0,100.0,300.0,200.0,300.0,200.0,400.0,300.0,200.0,100.0,300.0,300.0,500.0,300.0,300.0,100.0,0.0,200.0,300.0,400.0,300.0,200.0,100.0,100.0,0.0,400.0,300.0,100.0,300.0,400.0,300.0,100.0,200.0,400.0,500.0,400.0,100.0,0.0,200.0,0.0,300.0,400.0,0.0,300.0,300.0,300.0,0.0,300.0,100.0,100.0,0.0,300.0,500.0,300.0,0.0,300.0,200.0,500.0,500.0,500.0,200.0,300.0,0.0,500.0,0.0,500.0,0.0,300.0,500.0,100.0,100.0,300.0,400.0,200.0,100.0,200.0,300.0,0.0,100.0,200.0,500.0,0.0,0.0,300.0,300.0,500.0,300.0,100.0,0.0,0.0,200.0,0.0,0.0,200.0,300.0,100.0,300.0,100.0,400.0,0.0,500.0,0.0,300.0,0.0,300.0,400.0,0.0,300.0,300.0,400.0,500.0,0.0,400.0,300.0,0.0,300.0,200.0,300.0,0.0,200.0,300.0,0.0,300.0,400.0,400.0,300.0,200.0,200.0,-5501620.0,-296344.0
2008-03-17 16:00:00,300.0,500.0,400.0,0.0,100.0,200.0,300.0,300.0,500.0,300.0,400.0,400.0,200.0,100.0,0.0,0.0,200.0,100.0,200.0,400.0,300.0,200.0,400.0,400.0,100.0,200.0,200.0,200.0,300.0,200.0,400.0,100.0,200.0,500.0,300.0,500.0,500.0,300.0,100.0,400.0,0.0,200.0,400.0,300.0,0.0,300.0,300.0,100.0,0.0,0.0,400.0,400.0,0.0,400.0,0.0,300.0,300.0,400.0,400.0,200.0,400.0,300.0,200.0,200.0,200.0,100.0,0.0,0.0,0.0,400.0,100.0,400.0,0.0,200.0,300.0,0.0,300.0,200.0,100.0,0.0,200.0,0.0,400.0,200.0,100.0,500.0,0.0,400.0,0.0,300.0,400.0,0.0,300.0,400.0,300.0,300.0,400.0,300.0,300.0,300.0,400.0,0.0,100.0,0.0,400.0,400.0,0.0,0.0,100.0,300.0,300.0,300.0,500.0,0.0,300.0,400.0,300.0,0.0,0.0,0.0,0.0,0.0,200.0,500.0,200.0,400.0,200.0,400.0,0.0,400.0,300.0,400.0,200.0,200.0,0.0,500.0,0.0,500.0,500.0,300.0,400.0,0.0,300.0,200.0,300.0,400.0,400.0,0.0,500.0,400.0,400.0,100.0,300.0,300.0,100.0,200.0,100.0,400.0,0.0,500.0,400.0,500.0,0.0,400.0,0.0,400.0,400.0,500.0,300.0,300.0,100.0,0.0,300.0,400.0,200.0,100.0,200.0,100.0,400.0,300.0,0.0,100.0,300.0,400.0,500.0,300.0,400.0,200.0,100.0,400.0,500.0,100.0,100.0,300.0,200.0,400.0,500.0,400.0,400.0,300.0,100.0,300.0,0.0,400.0,200.0,100.0,200.0,500.0,200.0,400.0,400.0,200.0,200.0,400.0,300.0,300.0,300.0,500.0,300.0,400.0,500.0,500.0,500.0,200.0,400.0,200.0,500.0,400.0,400.0,0.0,500.0,400.0,400.0,200.0,200.0,300.0,400.0,200.0,300.0,0.0,300.0,200.0,0.0,300.0,300.0,0.0,300.0,100.0,300.0,300.0,300.0,100.0,0.0,300.0,300.0,400.0,400.0,100.0,200.0,400.0,400.0,400.0,0.0,200.0,0.0,0.0,0.0,100.0,400.0,200.0,200.0,0.0,0.0,200.0,0.0,0.0,400.0,300.0,400.0,300.0,100.0,200.0,100.0,400.0,100.0,300.0,400.0,500.0,300.0,0.0,0.0,100.0,300.0,0.0,0.0,300.0,300.0,400.0,400.0,300.0,400.0,200.0,400.0,0.0,400.0,300.0,400.0,300.0,400.0,0.0,500.0,400.0,100.0,300.0,400.0,400.0,400.0,200.0,200.0,300.0,500.0,300.0,300.0,300.0,200.0,500.0,400.0,200.0,300.0,200.0,300.0,100.0,300.0,200.0,100.0,300.0,300.0,0.0,300.0,300.0,500.0,400.0,400.0,400.0,400.0,100.0,400.0,500.0,0.0,500.0,500.0,100.0,0.0,0.0,300.0,0.0,300.0,200.0,100.0,400.0,0.0,0.0,400.0,100.0,200.0,100.0,400.0,300.0,300.0,200.0,300.0,400.0,200.0,100.0,400.0,400.0,500.0,400.0,300.0,100.0,0.0,200.0,400.0,400.0,400.0,200.0,100.0,100.0,0.0,300.0,300.0,100.0,400.0,400.0,400.0,200.0,300.0,400.0,500.0,300.0,100.0,0.0,300.0,0.0,300.0,400.0,0.0,200.0,400.0,300.0,0.0,300.0,200.0,100.0,0.0,300.0,500.0,400.0,0.0,300.0,200.0,500.0,500.0,400.0,200.0,300.0,0.0,500.0,0.0,500.0,0.0,400.0,500.0,100.0,100.0,300.0,300.0,200.0,100.0,100.0,200.0,0.0,100.0,200.0,400.0,0.0,0.0,400.0,200.0,500.0,400.0,100.0,0.0,0.0,300.0,0.0,0.0,200.0,300.0,100.0,300.0,100.0,400.0,0.0,500.0,0.0,300.0,0.0,300.0,300.0,0.0,300.0,200.0,400.0,500.0,0.0,300.0,400.0,0.0,400.0,200.0,400.0,0.0,100.0,400.0,0.0,300.0,300.0,400.0,400.0,300.0,200.0,-5849167.0,-402430.0
2008-03-18 16:00:00,300.0,500.0,400.0,0.0,200.0,200.0,300.0,300.0,500.0,300.0,400.0,500.0,200.0,100.0,0.0,0.0,300.0,100.0,200.0,400.0,200.0,200.0,300.0,400.0,100.0,200.0,200.0,200.0,400.0,300.0,500.0,100.0,200.0,400.0,300.0,500.0,400.0,400.0,100.0,400.0,0.0,300.0,400.0,300.0,0.0,400.0,300.0,100.0,0.0,0.0,400.0,500.0,0.0,500.0,0.0,300.0,300.0,400.0,300.0,300.0,500.0,300.0,200.0,200.0,200.0,200.0,0.0,0.0,0.0,400.0,100.0,400.0,0.0,200.0,300.0,0.0,300.0,200.0,100.0,0.0,200.0,0.0,300.0,200.0,100.0,400.0,0.0,400.0,0.0,200.0,400.0,0.0,400.0,400.0,300.0,200.0,500.0,200.0,300.0,400.0,400.0,0.0,100.0,0.0,400.0,400.0,0.0,0.0,100.0,300.0,400.0,300.0,500.0,0.0,300.0,400.0,300.0,0.0,0.0,0.0,0.0,0.0,200.0,400.0,300.0,500.0,200.0,500.0,0.0,400.0,300.0,500.0,300.0,200.0,0.0,500.0,0.0,400.0,500.0,300.0,400.0,0.0,400.0,200.0,300.0,500.0,400.0,0.0,500.0,400.0,400.0,100.0,400.0,300.0,100.0,200.0,100.0,400.0,0.0,500.0,400.0,400.0,0.0,300.0,0.0,500.0,400.0,400.0,300.0,300.0,100.0,0.0,400.0,400.0,200.0,100.0,300.0,100.0,500.0,300.0,0.0,100.0,300.0,400.0,400.0,300.0,500.0,200.0,100.0,400.0,400.0,100.0,100.0,400.0,200.0,400.0,500.0,300.0,400.0,400.0,100.0,300.0,0.0,400.0,200.0,100.0,300.0,400.0,200.0,500.0,400.0,200.0,200.0,400.0,400.0,300.0,300.0,500.0,300.0,400.0,500.0,400.0,500.0,200.0,300.0,200.0,500.0,400.0,400.0,0.0,500.0,400.0,500.0,300.0,200.0,300.0,400.0,200.0,300.0,0.0,400.0,300.0,0.0,400.0,300.0,0.0,400.0,100.0,300.0,300.0,400.0,200.0,0.0,300.0,400.0,300.0,400.0,100.0,200.0,400.0,300.0,300.0,0.0,200.0,0.0,0.0,0.0,100.0,500.0,200.0,200.0,0.0,0.0,200.0,0.0,0.0,400.0,300.0,500.0,300.0,100.0,200.0,100.0,300.0,100.0,300.0,500.0,500.0,300.0,0.0,0.0,100.0,300.0,0.0,0.0,300.0,300.0,500.0,300.0,300.0,500.0,200.0,400.0,0.0,300.0,300.0,400.0,300.0,500.0,0.0,400.0,400.0,200.0,300.0,500.0,400.0,400.0,300.0,200.0,200.0,500.0,300.0,400.0,400.0,200.0,400.0,400.0,200.0,300.0,300.0,200.0,100.0,300.0,200.0,100.0,300.0,300.0,0.0,200.0,300.0,400.0,500.0,400.0,400.0,400.0,100.0,500.0,400.0,0.0,400.0,500.0,100.0,0.0,0.0,300.0,0.0,300.0,200.0,100.0,500.0,0.0,0.0,500.0,200.0,200.0,100.0,500.0,300.0,300.0,200.0,300.0,400.0,300.0,100.0,400.0,300.0,400.0,400.0,300.0,100.0,0.0,300.0,500.0,400.0,500.0,200.0,100.0,200.0,0.0,200.0,300.0,100.0,400.0,400.0,500.0,300.0,400.0,400.0,500.0,300.0,100.0,0.0,300.0,0.0,400.0,400.0,0.0,200.0,400.0,300.0,0.0,300.0,200.0,100.0,0.0,300.0,400.0,400.0,0.0,300.0,300.0,400.0,400.0,300.0,200.0,300.0,0.0,500.0,0.0,500.0,0.0,400.0,500.0,100.0,100.0,300.0,300.0,300.0,100.0,100.0,100.0,0.0,0.0,200.0,300.0,0.0,0.0,400.0,200.0,500.0,400.0,100.0,0.0,0.0,400.0,0.0,0.0,200.0,300.0,100.0,300.0,100.0,500.0,0.0,400.0,0.0,400.0,0.0,300.0,300.0,0.0,400.0,200.0,400.0,400.0,0.0,300.0,500.0,0.0,500.0,200.0,500.0,0.0,100.0,500.0,0.0,400.0,200.0,300.0,500.0,400.0,200.0,-6020254.0,-157209.0
2008-03-19 16:00:00,300.0,500.0,400.0,100.0,300.0,200.0,300.0,300.0,500.0,200.0,400.0,500.0,200.0,100.0,0.0,0.0,300.0,200.0,200.0,400.0,200.0,100.0,300.0,400.0,200.0,300.0,100.0,200.0,400.0,400.0,500.0,100.0,200.0,400.0,300.0,500.0,400.0,500.0,200.0,400.0,100.0,400.0,300.0,300.0,100.0,400.0,300.0,200.0,100.0,100.0,300.0,500.0,100.0,500.0,100.0,300.0,300.0,400.0,300.0,400.0,500.0,300.0,200.0,200.0,300.0,300.0,100.0,100.0,0.0,400.0,200.0,400.0,100.0,200.0,300.0,0.0,400.0,300.0,100.0,0.0,200.0,100.0,300.0,100.0,200.0,400.0,0.0,400.0,0.0,200.0,400.0,0.0,400.0,400.0,400.0,200.0,500.0,200.0,200.0,500.0,400.0,100.0,100.0,0.0,400.0,400.0,100.0,100.0,100.0,300.0,500.0,300.0,500.0,0.0,400.0,300.0,300.0,100.0,100.0,100.0,0.0,0.0,200.0,400.0,300.0,500.0,200.0,500.0,0.0,400.0,300.0,500.0,400.0,300.0,0.0,500.0,100.0,300.0,500.0,300.0,400.0,0.0,500.0,200.0,300.0,500.0,400.0,0.0,500.0,400.0,400.0,100.0,400.0,300.0,100.0,300.0,200.0,300.0,100.0,500.0,400.0,300.0,100.0,300.0,0.0,500.0,400.0,300.0,300.0,300.0,200.0,0.0,500.0,400.0,200.0,100.0,300.0,200.0,500.0,300.0,0.0,0.0,300.0,400.0,400.0,300.0,500.0,300.0,100.0,400.0,400.0,100.0,200.0,400.0,300.0,300.0,500.0,300.0,400.0,400.0,100.0,400.0,100.0,400.0,300.0,0.0,400.0,400.0,300.0,500.0,300.0,100.0,100.0,300.0,400.0,400.0,300.0,500.0,300.0,400.0,500.0,400.0,500.0,100.0,300.0,300.0,500.0,400.0,400.0,0.0,500.0,400.0,500.0,300.0,300.0,300.0,300.0,200.0,400.0,0.0,500.0,300.0,100.0,400.0,400.0,0.0,500.0,100.0,200.0,300.0,400.0,300.0,100.0,300.0,400.0,300.0,300.0,0.0,200.0,400.0,200.0,300.0,100.0,200.0,100.0,100.0,0.0,200.0,500.0,300.0,200.0,0.0,100.0,200.0,0.0,100.0,400.0,300.0,500.0,300.0,100.0,200.0,0.0,300.0,0.0,300.0,500.0,500.0,300.0,0.0,100.0,200.0,300.0,0.0,0.0,300.0,300.0,500.0,200.0,200.0,500.0,300.0,400.0,100.0,200.0,300.0,400.0,300.0,500.0,0.0,400.0,400.0,300.0,200.0,500.0,400.0,400.0,400.0,200.0,300.0,500.0,300.0,500.0,400.0,100.0,400.0,400.0,100.0,300.0,400.0,200.0,200.0,300.0,300.0,200.0,300.0,400.0,0.0,300.0,300.0,400.0,500.0,400.0,400.0,400.0,100.0,500.0,400.0,100.0,400.0,500.0,100.0,0.0,100.0,300.0,0.0,300.0,300.0,100.0,400.0,100.0,0.0,500.0,200.0,200.0,200.0,500.0,200.0,300.0,200.0,300.0,400.0,400.0,200.0,400.0,200.0,400.0,400.0,300.0,100.0,100.0,400.0,500.0,400.0,500.0,200.0,200.0,300.0,0.0,200.0,300.0,100.0,400.0,400.0,500.0,400.0,400.0,400.0,500.0,300.0,0.0,100.0,400.0,0.0,400.0,300.0,100.0,100.0,300.0,300.0,100.0,300.0,300.0,100.0,0.0,300.0,400.0,400.0,100.0,300.0,300.0,400.0,400.0,200.0,200.0,300.0,100.0,500.0,100.0,500.0,0.0,300.0,500.0,100.0,200.0,300.0,300.0,400.0,0.0,100.0,0.0,0.0,100.0,200.0,200.0,0.0,100.0,400.0,200.0,500.0,400.0,200.0,0.0,100.0,500.0,100.0,0.0,300.0,300.0,100.0,300.0,100.0,500.0,0.0,400.0,100.0,400.0,0.0,300.0,300.0,0.0,400.0,100.0,400.0,300.0,0.0,300.0,500.0,0.0,500.0,200.0,500.0,100.0,200.0,500.0,0.0,400.0,200.0,300.0,500.0,500.0,200.0,-6421705.0,-331354.0
2008-03-20 16:00:00,200.0,400.0,300.0,200.0,300.0,300.0,300.0,300.0,500.0,100.0,300.0,500.0,100.0,100.0,0.0,0.0,400.0,300.0,200.0,300.0,200.0,0.0,300.0,300.0,300.0,400.0,100.0,100.0,400.0,500.0,400.0,200.0,300.0,300.0,300.0,400.0,300.0,500.0,300.0,300.0,200.0,500.0,200.0,400.0,200.0,300.0,400.0,200.0,200.0,200.0,200.0,400.0,200.0,400.0,200.0,300.0,300.0,400.0,300.0,500.0,500.0,300.0,200.0,200.0,400.0,400.0,200.0,100.0,0.0,400.0,200.0,300.0,200.0,100.0,300.0,0.0,300.0,400.0,100.0,0.0,300.0,200.0,300.0,100.0,200.0,400.0,0.0,300.0,0.0,200.0,300.0,0.0,300.0,400.0,300.0,200.0,400.0,200.0,100.0,400.0,400.0,200.0,100.0,0.0,300.0,300.0,200.0,200.0,100.0,300.0,500.0,200.0,500.0,0.0,400.0,200.0,300.0,100.0,100.0,200.0,0.0,0.0,300.0,300.0,300.0,400.0,200.0,500.0,0.0,300.0,200.0,500.0,500.0,300.0,0.0,400.0,200.0,200.0,400.0,300.0,300.0,0.0,400.0,100.0,200.0,500.0,400.0,0.0,400.0,400.0,300.0,100.0,300.0,300.0,100.0,400.0,200.0,200.0,100.0,500.0,300.0,200.0,200.0,400.0,0.0,500.0,500.0,200.0,400.0,200.0,200.0,0.0,400.0,300.0,200.0,200.0,300.0,200.0,500.0,300.0,0.0,0.0,200.0,400.0,300.0,300.0,400.0,300.0,200.0,400.0,400.0,200.0,200.0,400.0,300.0,200.0,500.0,200.0,400.0,300.0,200.0,400.0,200.0,300.0,300.0,0.0,300.0,300.0,300.0,400.0,200.0,100.0,100.0,200.0,400.0,400.0,300.0,500.0,300.0,300.0,400.0,400.0,400.0,100.0,300.0,200.0,500.0,300.0,300.0,0.0,500.0,300.0,500.0,300.0,300.0,300.0,200.0,300.0,500.0,0.0,500.0,400.0,200.0,500.0,400.0,0.0,500.0,100.0,100.0,200.0,400.0,200.0,200.0,200.0,400.0,200.0,200.0,0.0,300.0,300.0,100.0,300.0,200.0,200.0,200.0,200.0,0.0,200.0,500.0,300.0,200.0,0.0,100.0,300.0,0.0,200.0,300.0,200.0,500.0,200.0,100.0,200.0,100.0,300.0,100.0,300.0,400.0,500.0,300.0,100.0,100.0,200.0,300.0,0.0,0.0,200.0,300.0,500.0,100.0,100.0,500.0,300.0,300.0,200.0,100.0,200.0,300.0,200.0,500.0,0.0,300.0,400.0,400.0,100.0,400.0,400.0,300.0,500.0,200.0,300.0,400.0,300.0,400.0,300.0,100.0,300.0,400.0,100.0,200.0,400.0,300.0,200.0,400.0,300.0,300.0,300.0,300.0,0.0,300.0,200.0,300.0,500.0,300.0,400.0,300.0,100.0,500.0,400.0,100.0,400.0,500.0,200.0,0.0,200.0,300.0,0.0,300.0,400.0,100.0,300.0,200.0,100.0,400.0,300.0,300.0,200.0,500.0,200.0,300.0,200.0,200.0,400.0,500.0,200.0,300.0,100.0,300.0,400.0,300.0,100.0,200.0,400.0,500.0,300.0,400.0,100.0,200.0,300.0,0.0,100.0,300.0,100.0,300.0,300.0,500.0,400.0,500.0,400.0,500.0,200.0,0.0,200.0,300.0,0.0,300.0,200.0,200.0,0.0,200.0,300.0,200.0,300.0,300.0,200.0,100.0,300.0,300.0,400.0,200.0,200.0,300.0,300.0,400.0,100.0,100.0,200.0,200.0,500.0,100.0,500.0,0.0,300.0,400.0,200.0,300.0,300.0,400.0,500.0,0.0,200.0,0.0,100.0,100.0,100.0,100.0,0.0,200.0,400.0,200.0,500.0,300.0,300.0,0.0,100.0,500.0,200.0,0.0,200.0,300.0,100.0,200.0,200.0,500.0,0.0,300.0,200.0,300.0,0.0,300.0,300.0,0.0,400.0,100.0,300.0,200.0,0.0,300.0,500.0,0.0,500.0,300.0,500.0,100.0,300.0,400.0,0.0,400.0,100.0,300.0,500.0,400.0,300.0,-6216783.0,-197560.0
2008-03-24 16:00:00,100.0,300.0,200.0,300.0,300.0,300.0,300.0,200.0,400.0,0.0,200.0,500.0,200.0,200.0,0.0,0.0,400.0,300.0,300.0,200.0,300.0,0.0,300.0,200.0,300.0,400.0,0.0,0.0,400.0,500.0,300.0,200.0,300.0,200.0,300.0,300.0,200.0,500.0,300.0,300.0,300.0,500.0,100.0,400.0,300.0,200.0,400.0,300.0,200.0,300.0,100.0,300.0,300.0,300.0,300.0,300.0,200.0,300.0,200.0,400.0,500.0,300.0,100.0,200.0,400.0,400.0,300.0,100.0,100.0,400.0,100.0,200.0,300.0,200.0,300.0,100.0,200.0,400.0,200.0,0.0,200.0,300.0,200.0,0.0,100.0,300.0,0.0,200.0,0.0,200.0,200.0,0.0,300.0,400.0,300.0,200.0,300.0,300.0,0.0,300.0,400.0,300.0,200.0,0.0,200.0,300.0,200.0,200.0,100.0,200.0,500.0,100.0,500.0,100.0,300.0,100.0,300.0,200.0,200.0,300.0,0.0,0.0,300.0,200.0,400.0,300.0,100.0,500.0,100.0,300.0,100.0,400.0,400.0,300.0,100.0,300.0,300.0,100.0,300.0,300.0,300.0,0.0,300.0,200.0,100.0,500.0,400.0,100.0,300.0,300.0,200.0,100.0,300.0,300.0,100.0,400.0,100.0,100.0,200.0,500.0,200.0,100.0,300.0,400.0,100.0,500.0,500.0,100.0,400.0,100.0,200.0,100.0,300.0,200.0,200.0,300.0,400.0,300.0,500.0,300.0,100.0,100.0,200.0,400.0,200.0,300.0,400.0,300.0,200.0,300.0,300.0,200.0,100.0,300.0,300.0,100.0,500.0,100.0,300.0,300.0,300.0,400.0,300.0,200.0,300.0,100.0,200.0,200.0,200.0,300.0,200.0,0.0,100.0,100.0,300.0,300.0,200.0,500.0,200.0,200.0,300.0,300.0,300.0,0.0,300.0,200.0,500.0,300.0,200.0,0.0,400.0,200.0,500.0,300.0,200.0,300.0,100.0,200.0,500.0,0.0,400.0,400.0,300.0,400.0,400.0,100.0,400.0,0.0,100.0,200.0,300.0,200.0,300.0,200.0,300.0,200.0,100.0,0.0,300.0,200.0,0.0,300.0,300.0,200.0,300.0,300.0,0.0,300.0,500.0,200.0,300.0,0.0,100.0,300.0,0.0,300.0,200.0,200.0,400.0,200.0,200.0,100.0,100.0,200.0,200.0,200.0,300.0,400.0,200.0,200.0,200.0,300.0,200.0,100.0,0.0,100.0,300.0,500.0,0.0,0.0,500.0,200.0,200.0,300.0,0.0,100.0,300.0,100.0,500.0,0.0,200.0,300.0,500.0,0.0,300.0,400.0,200.0,500.0,200.0,200.0,300.0,300.0,300.0,300.0,0.0,200.0,400.0,0.0,200.0,300.0,400.0,200.0,400.0,300.0,300.0,300.0,200.0,100.0,200.0,100.0,200.0,400.0,300.0,400.0,200.0,100.0,500.0,400.0,100.0,400.0,400.0,200.0,0.0,300.0,200.0,100.0,200.0,300.0,0.0,200.0,300.0,100.0,300.0,400.0,300.0,200.0,500.0,100.0,200.0,100.0,200.0,400.0,400.0,100.0,200.0,100.0,200.0,400.0,300.0,0.0,300.0,400.0,500.0,200.0,300.0,0.0,200.0,300.0,100.0,200.0,300.0,200.0,300.0,200.0,500.0,300.0,500.0,300.0,500.0,100.0,0.0,300.0,200.0,0.0,300.0,200.0,300.0,0.0,100.0,300.0,300.0,300.0,300.0,300.0,200.0,300.0,200.0,400.0,300.0,200.0,400.0,200.0,300.0,0.0,200.0,200.0,300.0,400.0,200.0,400.0,0.0,200.0,300.0,300.0,300.0,300.0,400.0,500.0,0.0,300.0,0.0,100.0,100.0,200.0,0.0,0.0,300.0,400.0,200.0,400.0,200.0,300.0,100.0,200.0,500.0,300.0,0.0,200.0,300.0,200.0,100.0,300.0,400.0,0.0,200.0,300.0,300.0,100.0,300.0,200.0,0.0,400.0,0.0,200.0,100.0,0.0,300.0,500.0,100.0,400.0,400.0,500.0,200.0,200.0,400.0,0.0,400.0,200.0,200.0,500.0,300.0,300.0,-5777302.0,-46984.0
2008-03-25 16:00:00,200.0,200.0,100.0,400.0,400.0,400.0,400.0,100.0,300.0,0.0,100.0,500.0,300.0,200.0,0.0,100.0,500.0,400.0,400.0,100.0,400.0,100.0,400.0,100.0,400.0,400.0,0.0,0.0,500.0,500.0,200.0,300.0,400.0,100.0,400.0,200.0,200.0,500.0,400.0,300.0,400.0,500.0,0.0,400.0,400.0,200.0,400.0,300.0,300.0,400.0,0.0,200.0,400.0,300.0,400.0,400.0,200.0,300.0,100.0,300.0,500.0,400.0,100.0,200.0,400.0,500.0,400.0,200.0,200.0,400.0,100.0,100.0,400.0,300.0,400.0,200.0,200.0,400.0,300.0,100.0,300.0,400.0,300.0,100.0,200.0,200.0,100.0,100.0,0.0,200.0,100.0,100.0,400.0,300.0,300.0,300.0,300.0,300.0,100.0,200.0,400.0,400.0,200.0,0.0,200.0,200.0,300.0,300.0,100.0,200.0,500.0,100.0,500.0,200.0,200.0,0.0,400.0,300.0,300.0,400.0,100.0,100.0,400.0,100.0,500.0,300.0,100.0,500.0,200.0,200.0,100.0,400.0,300.0,400.0,200.0,200.0,400.0,0.0,200.0,400.0,300.0,0.0,200.0,300.0,200.0,500.0,400.0,200.0,300.0,200.0,100.0,200.0,300.0,400.0,100.0,400.0,200.0,100.0,300.0,500.0,100.0,0.0,400.0,400.0,200.0,500.0,500.0,100.0,400.0,100.0,300.0,200.0,200.0,100.0,200.0,400.0,500.0,300.0,500.0,400.0,200.0,200.0,300.0,400.0,200.0,400.0,400.0,400.0,300.0,200.0,300.0,300.0,200.0,400.0,300.0,0.0,400.0,100.0,200.0,200.0,400.0,400.0,400.0,200.0,400.0,200.0,200.0,100.0,100.0,200.0,200.0,0.0,0.0,0.0,300.0,200.0,300.0,400.0,300.0,100.0,200.0,300.0,300.0,0.0,400.0,300.0,500.0,200.0,100.0,100.0,400.0,200.0,500.0,400.0,100.0,400.0,0.0,300.0,400.0,0.0,300.0,400.0,400.0,300.0,300.0,200.0,300.0,100.0,200.0,300.0,200.0,200.0,400.0,200.0,300.0,300.0,0.0,100.0,400.0,100.0,0.0,400.0,400.0,300.0,400.0,400.0,0.0,300.0,500.0,100.0,400.0,100.0,200.0,400.0,0.0,400.0,200.0,300.0,400.0,300.0,300.0,200.0,200.0,100.0,300.0,200.0,200.0,300.0,100.0,200.0,300.0,400.0,200.0,200.0,0.0,100.0,400.0,500.0,0.0,100.0,400.0,200.0,100.0,400.0,0.0,100.0,300.0,200.0,500.0,0.0,100.0,200.0,500.0,0.0,200.0,400.0,100.0,500.0,200.0,100.0,200.0,400.0,200.0,400.0,0.0,100.0,300.0,100.0,300.0,200.0,300.0,300.0,400.0,400.0,400.0,300.0,100.0,200.0,100.0,100.0,100.0,300.0,200.0,400.0,200.0,200.0,400.0,400.0,200.0,300.0,400.0,200.0,0.0,400.0,100.0,200.0,200.0,300.0,100.0,100.0,400.0,100.0,200.0,500.0,300.0,300.0,500.0,0.0,300.0,100.0,300.0,400.0,400.0,200.0,100.0,0.0,100.0,400.0,400.0,100.0,400.0,500.0,400.0,100.0,300.0,100.0,300.0,400.0,200.0,300.0,400.0,200.0,300.0,100.0,400.0,200.0,500.0,200.0,500.0,100.0,0.0,400.0,200.0,0.0,400.0,100.0,400.0,0.0,0.0,400.0,400.0,300.0,300.0,400.0,300.0,400.0,100.0,400.0,400.0,300.0,500.0,100.0,300.0,100.0,300.0,300.0,400.0,400.0,300.0,300.0,100.0,100.0,200.0,400.0,400.0,300.0,500.0,500.0,100.0,300.0,100.0,200.0,200.0,300.0,0.0,0.0,400.0,300.0,200.0,300.0,100.0,400.0,100.0,300.0,500.0,400.0,100.0,300.0,300.0,300.0,0.0,400.0,300.0,0.0,200.0,300.0,400.0,200.0,400.0,300.0,0.0,400.0,0.0,100.0,0.0,0.0,400.0,400.0,200.0,300.0,300.0,500.0,300.0,200.0,400.0,100.0,500.0,300.0,100.0,500.0,200.0,400.0,-6048001.0,-17903.0
2008-03-26 16:00:00,300.0,100.0,100.0,500.0,400.0,500.0,500.0,100.0,200.0,100.0,100.0,500.0,300.0,200.0,0.0,200.0,500.0,500.0,500.0,200.0,500.0,200.0,500.0,100.0,500.0,500.0,100.0,0.0,500.0,500.0,200.0,400.0,500.0,200.0,500.0,200.0,300.0,500.0,500.0,400.0,500.0,500.0,100.0,500.0,500.0,200.0,500.0,400.0,400.0,500.0,100.0,200.0,500.0,300.0,500.0,500.0,300.0,400.0,200.0,300.0,400.0,500.0,100.0,300.0,500.0,500.0,500.0,300.0,300.0,500.0,200.0,200.0,500.0,400.0,500.0,300.0,300.0,400.0,400.0,200.0,400.0,500.0,400.0,200.0,300.0,200.0,200.0,200.0,0.0,300.0,200.0,200.0,400.0,400.0,400.0,400.0,300.0,400.0,200.0,100.0,500.0,500.0,300.0,100.0,300.0,200.0,400.0,400.0,100.0,200.0,500.0,200.0,500.0,300.0,300.0,0.0,500.0,400.0,400.0,500.0,200.0,100.0,500.0,200.0,500.0,300.0,200.0,500.0,300.0,300.0,200.0,400.0,300.0,500.0,300.0,200.0,500.0,100.0,200.0,500.0,400.0,0.0,200.0,400.0,300.0,500.0,500.0,300.0,200.0,200.0,100.0,300.0,200.0,500.0,100.0,500.0,300.0,200.0,400.0,500.0,200.0,0.0,500.0,500.0,300.0,500.0,500.0,200.0,500.0,200.0,400.0,300.0,100.0,100.0,300.0,500.0,500.0,400.0,500.0,500.0,300.0,300.0,400.0,500.0,300.0,500.0,400.0,500.0,400.0,200.0,400.0,400.0,300.0,400.0,400.0,0.0,400.0,200.0,300.0,100.0,500.0,500.0,500.0,300.0,500.0,300.0,100.0,200.0,200.0,200.0,300.0,100.0,100.0,0.0,300.0,100.0,400.0,300.0,400.0,200.0,200.0,400.0,300.0,0.0,500.0,400.0,500.0,300.0,200.0,200.0,400.0,300.0,500.0,400.0,200.0,500.0,0.0,400.0,400.0,100.0,200.0,400.0,500.0,200.0,400.0,300.0,300.0,200.0,300.0,400.0,200.0,200.0,500.0,300.0,300.0,400.0,0.0,200.0,500.0,200.0,0.0,500.0,500.0,400.0,500.0,500.0,0.0,400.0,500.0,200.0,500.0,200.0,300.0,500.0,0.0,500.0,300.0,400.0,400.0,400.0,400.0,300.0,300.0,100.0,400.0,300.0,200.0,300.0,200.0,200.0,400.0,500.0,300.0,300.0,0.0,200.0,500.0,500.0,0.0,200.0,300.0,300.0,100.0,500.0,0.0,200.0,400.0,300.0,500.0,0.0,200.0,300.0,500.0,100.0,100.0,500.0,200.0,500.0,100.0,100.0,200.0,500.0,200.0,400.0,100.0,100.0,400.0,200.0,400.0,100.0,400.0,400.0,500.0,500.0,500.0,400.0,100.0,300.0,100.0,200.0,100.0,300.0,300.0,500.0,300.0,200.0,400.0,500.0,300.0,300.0,400.0,300.0,100.0,500.0,100.0,300.0,200.0,400.0,200.0,100.0,500.0,200.0,200.0,500.0,400.0,400.0,400.0,100.0,400.0,200.0,400.0,500.0,400.0,300.0,200.0,100.0,200.0,500.0,500.0,200.0,500.0,500.0,300.0,200.0,200.0,200.0,400.0,400.0,300.0,400.0,500.0,200.0,400.0,100.0,300.0,100.0,500.0,200.0,500.0,200.0,0.0,500.0,300.0,0.0,400.0,200.0,500.0,0.0,100.0,500.0,500.0,400.0,400.0,500.0,400.0,500.0,200.0,500.0,500.0,400.0,500.0,100.0,400.0,200.0,400.0,400.0,400.0,400.0,400.0,300.0,200.0,100.0,200.0,500.0,500.0,400.0,500.0,500.0,200.0,400.0,200.0,300.0,300.0,400.0,0.0,0.0,500.0,400.0,300.0,300.0,200.0,500.0,100.0,400.0,500.0,500.0,100.0,400.0,400.0,400.0,100.0,500.0,200.0,0.0,300.0,400.0,400.0,300.0,500.0,400.0,0.0,300.0,0.0,100.0,0.0,100.0,500.0,400.0,300.0,200.0,300.0,500.0,400.0,300.0,400.0,200.0,500.0,400.0,200.0,500.0,200.0,500.0,-7315969.0,-77230.0
2008-03-27 16:00:00,300.0,100.0,0.0,500.0,400.0,500.0,500.0,200.0,200.0,200.0,0.0,500.0,200.0,200.0,0.0,300.0,500.0,500.0,500.0,200.0,500.0,300.0,500.0,100.0,500.0,500.0,200.0,100.0,500.0,500.0,200.0,400.0,500.0,200.0,500.0,200.0,300.0,500.0,500.0,400.0,500.0,500.0,200.0,500.0,500.0,200.0,500.0,400.0,400.0,500.0,200.0,200.0,500.0,300.0,500.0,500.0,300.0,400.0,200.0,300.0,300.0,500.0,100.0,300.0,500.0,500.0,500.0,300.0,400.0,500.0,200.0,200.0,500.0,400.0,400.0,400.0,300.0,400.0,400.0,300.0,400.0,500.0,400.0,300.0,300.0,100.0,200.0,200.0,0.0,300.0,200.0,300.0,400.0,400.0,400.0,400.0,300.0,400.0,300.0,100.0,500.0,500.0,300.0,200.0,300.0,200.0,400.0,400.0,100.0,200.0,400.0,100.0,500.0,400.0,300.0,100.0,500.0,400.0,400.0,500.0,300.0,100.0,500.0,200.0,500.0,300.0,100.0,500.0,400.0,300.0,100.0,400.0,300.0,500.0,400.0,200.0,500.0,200.0,200.0,500.0,400.0,0.0,200.0,400.0,300.0,500.0,500.0,400.0,200.0,200.0,0.0,300.0,100.0,500.0,100.0,500.0,200.0,300.0,400.0,500.0,200.0,0.0,500.0,500.0,400.0,500.0,500.0,300.0,500.0,100.0,400.0,400.0,100.0,100.0,300.0,500.0,500.0,400.0,500.0,500.0,400.0,400.0,400.0,500.0,300.0,500.0,400.0,500.0,500.0,100.0,400.0,400.0,200.0,400.0,400.0,100.0,400.0,300.0,300.0,0.0,500.0,500.0,500.0,300.0,500.0,400.0,100.0,200.0,200.0,200.0,400.0,200.0,200.0,0.0,300.0,100.0,400.0,200.0,400.0,200.0,200.0,400.0,300.0,100.0,500.0,400.0,500.0,300.0,200.0,300.0,400.0,300.0,500.0,400.0,200.0,500.0,0.0,400.0,400.0,200.0,100.0,400.0,500.0,100.0,400.0,400.0,300.0,300.0,400.0,400.0,200.0,200.0,500.0,200.0,300.0,400.0,100.0,300.0,500.0,200.0,0.0,500.0,500.0,400.0,500.0,500.0,0.0,400.0,500.0,200.0,500.0,300.0,300.0,500.0,0.0,500.0,300.0,400.0,400.0,400.0,400.0,300.0,400.0,100.0,500.0,300.0,200.0,300.0,200.0,200.0,400.0,500.0,300.0,400.0,0.0,100.0,500.0,500.0,0.0,300.0,300.0,300.0,100.0,500.0,0.0,200.0,400.0,300.0,500.0,0.0,200.0,300.0,500.0,200.0,0.0,500.0,200.0,400.0,0.0,100.0,200.0,500.0,200.0,400.0,200.0,0.0,400.0,300.0,400.0,0.0,400.0,400.0,500.0,500.0,500.0,400.0,0.0,400.0,100.0,200.0,100.0,200.0,200.0,500.0,300.0,200.0,400.0,500.0,300.0,300.0,400.0,300.0,200.0,500.0,100.0,400.0,200.0,400.0,300.0,200.0,500.0,300.0,200.0,500.0,400.0,400.0,400.0,200.0,400.0,300.0,400.0,500.0,400.0,300.0,200.0,100.0,200.0,500.0,500.0,300.0,500.0,500.0,300.0,200.0,200.0,300.0,400.0,400.0,400.0,400.0,500.0,200.0,400.0,0.0,300.0,100.0,500.0,200.0,500.0,200.0,100.0,500.0,300.0,0.0,400.0,300.0,500.0,100.0,200.0,500.0,500.0,400.0,400.0,400.0,500.0,500.0,200.0,500.0,500.0,400.0,500.0,100.0,400.0,200.0,300.0,400.0,400.0,400.0,400.0,300.0,300.0,100.0,200.0,500.0,500.0,400.0,500.0,500.0,300.0,300.0,300.0,400.0,300.0,400.0,0.0,0.0,500.0,400.0,300.0,300.0,200.0,500.0,100.0,400.0,500.0,500.0,200.0,400.0,400.0,400.0,200.0,500.0,200.0,100.0,200.0,400.0,400.0,400.0,500.0,400.0,100.0,300.0,100.0,100.0,0.0,200.0,500.0,400.0,400.0,200.0,300.0,500.0,300.0,300.0,400.0,300.0,500.0,400.0,200.0,500.0,200.0,500.0,-7479461.0,-164805.0
2008-03-28 16:00:00,300.0,100.0,0.0,500.0,500.0,500.0,500.0,200.0,200.0,200.0,100.0,500.0,300.0,300.0,0.0,400.0,500.0,500.0,500.0,300.0,500.0,300.0,500.0,200.0,500.0,500.0,200.0,200.0,500.0,500.0,300.0,400.0,500.0,200.0,400.0,300.0,400.0,500.0,500.0,500.0,500.0,500.0,300.0,500.0,500.0,300.0,500.0,500.0,400.0,500.0,300.0,300.0,500.0,400.0,500.0,500.0,300.0,400.0,300.0,300.0,300.0,400.0,200.0,400.0,400.0,500.0,500.0,400.0,500.0,500.0,300.0,300.0,500.0,500.0,300.0,500.0,400.0,400.0,500.0,400.0,400.0,500.0,400.0,400.0,400.0,100.0,200.0,300.0,0.0,400.0,300.0,400.0,500.0,400.0,500.0,500.0,400.0,400.0,400.0,200.0,500.0,500.0,400.0,300.0,400.0,300.0,400.0,400.0,200.0,200.0,400.0,100.0,500.0,500.0,300.0,200.0,500.0,500.0,500.0,400.0,400.0,200.0,500.0,300.0,500.0,400.0,100.0,500.0,400.0,400.0,200.0,400.0,300.0,500.0,500.0,300.0,500.0,300.0,300.0,500.0,500.0,0.0,300.0,500.0,400.0,500.0,500.0,500.0,300.0,200.0,0.0,400.0,100.0,500.0,200.0,500.0,200.0,300.0,500.0,500.0,300.0,100.0,500.0,500.0,500.0,500.0,500.0,400.0,500.0,200.0,500.0,500.0,200.0,200.0,300.0,500.0,500.0,500.0,400.0,500.0,500.0,500.0,400.0,500.0,400.0,500.0,500.0,500.0,500.0,0.0,400.0,400.0,300.0,300.0,500.0,200.0,400.0,400.0,300.0,100.0,500.0,500.0,500.0,400.0,500.0,500.0,200.0,300.0,300.0,300.0,500.0,300.0,300.0,100.0,300.0,100.0,400.0,100.0,400.0,200.0,300.0,400.0,300.0,200.0,500.0,500.0,500.0,400.0,300.0,400.0,400.0,400.0,400.0,400.0,300.0,500.0,0.0,400.0,400.0,300.0,100.0,400.0,500.0,0.0,400.0,500.0,300.0,400.0,500.0,500.0,300.0,300.0,500.0,200.0,300.0,500.0,200.0,400.0,500.0,300.0,100.0,500.0,500.0,500.0,400.0,500.0,0.0,500.0,500.0,300.0,500.0,300.0,300.0,500.0,0.0,500.0,400.0,500.0,400.0,500.0,500.0,400.0,400.0,200.0,500.0,300.0,300.0,300.0,300.0,100.0,500.0,500.0,300.0,500.0,0.0,200.0,400.0,500.0,0.0,400.0,300.0,400.0,200.0,500.0,0.0,300.0,500.0,400.0,500.0,0.0,300.0,300.0,500.0,300.0,0.0,500.0,300.0,400.0,0.0,200.0,300.0,500.0,300.0,400.0,300.0,0.0,400.0,300.0,500.0,0.0,400.0,500.0,500.0,500.0,500.0,400.0,0.0,500.0,200.0,300.0,200.0,200.0,300.0,500.0,400.0,300.0,400.0,500.0,400.0,300.0,400.0,200.0,200.0,500.0,200.0,500.0,200.0,400.0,400.0,300.0,500.0,200.0,300.0,500.0,400.0,500.0,400.0,300.0,400.0,400.0,500.0,500.0,400.0,400.0,300.0,200.0,300.0,500.0,500.0,300.0,500.0,400.0,300.0,300.0,300.0,400.0,400.0,500.0,500.0,400.0,500.0,300.0,400.0,0.0,300.0,200.0,400.0,200.0,500.0,300.0,200.0,500.0,400.0,0.0,500.0,400.0,500.0,100.0,300.0,400.0,500.0,400.0,400.0,300.0,400.0,500.0,300.0,500.0,500.0,500.0,500.0,200.0,400.0,200.0,300.0,500.0,400.0,400.0,500.0,200.0,400.0,100.0,300.0,500.0,500.0,400.0,500.0,500.0,300.0,200.0,400.0,400.0,400.0,500.0,0.0,0.0,500.0,400.0,300.0,300.0,300.0,500.0,200.0,500.0,500.0,500.0,300.0,500.0,400.0,500.0,300.0,500.0,200.0,200.0,200.0,400.0,500.0,500.0,500.0,400.0,200.0,300.0,200.0,200.0,0.0,200.0,500.0,400.0,500.0,200.0,200.0,500.0,300.0,300.0,500.0,400.0,500.0,500.0,300.0,500.0,300.0,500.0,-8278929.0,-242727.0
2008-03-31 16:00:00,300.0,200.0,0.0,500.0,500.0,500.0,500.0,300.0,200.0,300.0,100.0,500.0,200.0,300.0,100.0,500.0,400.0,500.0,500.0,400.0,500.0,300.0,500.0,300.0,500.0,400.0,200.0,300.0,500.0,500.0,400.0,500.0,400.0,300.0,300.0,400.0,500.0,500.0,500.0,400.0,500.0,500.0,400.0,500.0,500.0,400.0,500.0,400.0,500.0,500.0,400.0,400.0,500.0,500.0,500.0,400.0,400.0,500.0,400.0,400.0,300.0,300.0,300.0,400.0,300.0,500.0,500.0,500.0,500.0,500.0,400.0,400.0,500.0,500.0,200.0,500.0,500.0,400.0,500.0,500.0,500.0,500.0,500.0,500.0,500.0,100.0,200.0,400.0,0.0,500.0,400.0,500.0,500.0,400.0,500.0,500.0,400.0,300.0,500.0,300.0,400.0,400.0,400.0,400.0,500.0,400.0,500.0,500.0,300.0,300.0,300.0,100.0,500.0,500.0,400.0,300.0,400.0,400.0,500.0,300.0,500.0,200.0,500.0,400.0,500.0,500.0,100.0,500.0,400.0,400.0,300.0,500.0,400.0,500.0,400.0,400.0,500.0,400.0,400.0,500.0,500.0,0.0,400.0,400.0,500.0,500.0,400.0,500.0,400.0,200.0,100.0,400.0,0.0,500.0,300.0,500.0,200.0,300.0,500.0,500.0,400.0,100.0,500.0,400.0,500.0,400.0,500.0,500.0,500.0,300.0,500.0,500.0,300.0,300.0,400.0,400.0,500.0,400.0,300.0,400.0,500.0,400.0,300.0,400.0,500.0,500.0,500.0,400.0,500.0,0.0,500.0,500.0,300.0,300.0,500.0,300.0,300.0,500.0,400.0,200.0,500.0,500.0,500.0,400.0,500.0,400.0,300.0,400.0,400.0,400.0,400.0,400.0,400.0,200.0,400.0,100.0,500.0,0.0,500.0,300.0,400.0,500.0,300.0,300.0,500.0,500.0,500.0,400.0,400.0,500.0,500.0,500.0,300.0,300.0,400.0,500.0,0.0,500.0,400.0,400.0,200.0,400.0,500.0,0.0,400.0,400.0,400.0,500.0,500.0,400.0,400.0,400.0,400.0,100.0,400.0,500.0,300.0,500.0,500.0,400.0,200.0,500.0,500.0,400.0,300.0,400.0,0.0,500.0,500.0,400.0,400.0,300.0,400.0,500.0,0.0,500.0,500.0,500.0,500.0,400.0,500.0,400.0,400.0,300.0,500.0,400.0,400.0,400.0,400.0,0.0,500.0,500.0,400.0,500.0,0.0,300.0,300.0,500.0,0.0,500.0,300.0,500.0,300.0,500.0,0.0,400.0,500.0,400.0,500.0,0.0,400.0,400.0,500.0,400.0,0.0,500.0,400.0,400.0,0.0,300.0,400.0,400.0,400.0,400.0,400.0,0.0,400.0,300.0,400.0,0.0,400.0,500.0,500.0,500.0,500.0,400.0,0.0,500.0,300.0,400.0,300.0,200.0,300.0,500.0,500.0,300.0,400.0,500.0,500.0,300.0,500.0,200.0,200.0,500.0,300.0,500.0,200.0,500.0,500.0,400.0,500.0,300.0,400.0,400.0,400.0,500.0,400.0,400.0,400.0,500.0,500.0,500.0,500.0,500.0,400.0,200.0,400.0,400.0,500.0,300.0,500.0,300.0,300.0,400.0,400.0,500.0,300.0,500.0,500.0,400.0,400.0,200.0,300.0,0.0,300.0,300.0,300.0,200.0,500.0,400.0,200.0,400.0,500.0,0.0,500.0,400.0,500.0,200.0,400.0,400.0,500.0,400.0,300.0,200.0,400.0,500.0,400.0,400.0,500.0,500.0,500.0,200.0,500.0,200.0,200.0,400.0,300.0,500.0,400.0,200.0,500.0,200.0,400.0,500.0,400.0,400.0,500.0,500.0,400.0,100.0,400.0,400.0,400.0,500.0,100.0,100.0,500.0,400.0,400.0,400.0,400.0,500.0,200.0,500.0,500.0,500.0,400.0,500.0,400.0,400.0,400.0,500.0,300.0,300.0,200.0,400.0,500.0,500.0,500.0,500.0,300.0,300.0,300.0,300.0,100.0,200.0,500.0,400.0,500.0,300.0,100.0,500.0,200.0,400.0,500.0,500.0,500.0,500.0,400.0,500.0,400.0,500.0,-8867244.0,-179912.0
