,A,AA,AAPL,ABC,ABT,ACE,ACN,ADBE,ADI,ADM,ADP,ADSK,AEE,AEP,AES,AET,AFL,AGN,AIG,AIV,AIZ,AKAM,ALL,ALTR,ALXN,AMAT,AMD,AMGN,AMP,AMT,AMZN,AN,ANF,ANR,AON,APA,APC,APD,APH,APOL,ARG,ATI,AVB,AVP,AVY,AXP,AZO,BA,BAC,BAX,BBBY,BBT,BBY,BCR,BDX,BEAM,BEN,BF.B,BHI,BIG,BIIB,BK,BLK,BLL,BMC,BMS,BMY,BRCM,BRK.B,BSX,BTU,BXP,C,CA,CAG,CAH,CAM,CAT,CB,CBE,CBG,CBS,CCE,CCI,CCL,CELG,CERN,CF,CFN,CHK,CHRW,CI,CINF,CL,CLF,CLX,CMA,CMCSA,CME,CMG,CMI,CMS,CNP,CNX,COF,COG,COH,COL,COP,COST,COV,CPB,CRM,CSC,CSCO,CSX,CTAS,CTL,CTSH,CTXS,CVC,CVH,CVS,CVX,D,DD,DE,DELL,DF,DFS,DGX,DHI,DHR,DIS,DISCA,DLTR,DNB,DNR,DO,DOV,DOW,DPS,DRI,DTE,DTV,DUK,DV,DVA,DVN,EA,EBAY,ECL,ED,EFX,EIX,EL,EMC,EMN,EMR,EOG,EQR,EQT,ESRX,ESV,ETFC,ETN,ETR,EW,EXC,EXPD,EXPE,F,FAST,FCX,FDO,FDX,FE,FFIV,FHN,FII,FIS,FISV,FITB,FLIR,FLR,FLS,FMC,FOSL,FRX,FSLR,FTI,FTR,GAS,GCI,GD,GE,GILD,GIS,GLW,GME,GNW,GOOG,GPC,GPS,GS,GT,GWW,HAL,HAR,HAS,HBAN,HCBK,HCN,HCP,HD,HES,HIG,HNZ,HOG,HON,HOT,HP,HPQ,HRB,HRL,HRS,HSP,HST,HSY,HUM,IBM,ICE,IFF,IGT,INTC,INTU,IP,IPG,IR,IRM,ISRG,ITW,IVZ,JBL,JCI,JCP,JDSU,JEC,JNJ,JNPR,JOY,JPM,JWN,K,KEY,KFT,KIM,KLAC,KMB,KMX,KO,KR,KSS,L,LEG,LEN,LH,LIFE,LLL,LLTC,LLY,LM,LMT,LNC,LO,LOW,LRCX,LSI,LTD,LUK,LUV,LXK,M,MA,MAR,MAS,MAT,MCD,MCHP,MCK,MCO,MDT,MET,MHP,MJN,MKC,MMC,MMM,MNST,MO,MOLX,MON,MOS,MRK,MRO,MS,MSFT,MSI,MTB,MU,MUR,MWV,MYL,NBL,NBR,NDAQ,NE,NEE,NEM,NFLX,NFX,NI,NKE,NOC,NOV,NRG,NSC,NTAP,NTRS,NU,NUE,NVDA,NWL,NWSA,NYX,OI,OKE,OMC,ORCL,ORLY,OXY,PAYX,PBCT,PBI,PCAR,PCG,PCL,PCLN,PCP,PCS,PDCO,PEP,PFE,PFG,PG,PGR,PH,PHM,PKI,PLD,PLL,PM,PNC,PNW,POM,PPG,PPL,PRGO,PRU,PSA,PWR,PX,PXD,QCOM,R,RAI,RDC,RF,RHI,RHT,RL,ROK,ROP,ROST,RRC,RRD,RSG,RTN,S,SAI,SBUX,SCG,SCHW,SE,SEE,SHLD,SHW,SIAL,SJM,SLB,SLM,SNA,SNDK,SNI,SO,SPG,SPLS,SRCL,SRE,STI,STJ,STT,STX,STZ,SUN,SWK,SWN,SWY,SYK,SYMC,SYY,T,TAP,TDC,TE,TEG,TEL,TER,TGT,THC,TIE,TIF,TJX,TMK,TMO,TROW,TRV,TSN,TSO,TSS,TWC,TWX,TXN,TXT,TYC,UNH,UNM,UNP,UPS,URBN,USB,UTX,V,VAR,VFC,VIAB,VLO,VMC,VNO,VRSN,VTR,VZ,WAG,WAT,WDC,WEC,WFC,WFM,WHR,WIN,WLP,WM,WMB,WMT,WPI,WPO,WU,WY,WYN,WYNN,X,XEL,XL,XLNX,XOM,XRAY,XRX,YHOO,YUM,ZION,ZMH,SPY
2008-01-31 16:00:00,33.69,30.36,134.78,22.03,48.43,52.42,31.82,34.93,24.56,39.97,35.27,41.15,33.96,33.93,19.09,51.78,53.99,66.15,902.94,24.75,59.11,30.2,42.2,16.18,16.33,16.15,7.59,45.9,50.49,37.19,77.7,16.28,73.02,33.42,40.84,92.57,56.79,79.71,39.45,79.74,43.22,64.97,76.03,29.73,43.82,44.8,120.65,73.19,40.16,54.57,32.2,30.49,44.38,92.92,79.13,63.32,97.55,45.51,61.41,17.36,60.95,42.4,196.07,22.06,32.07,23.23,18.37,21.46,91.0,12.15,52.02,80.16,268.88,20.7,18.12,32.56,39.92,62.8,45.86,39.29,19.37,21.63,14.46,36.12,40.47,56.11,26.2,104.1,18.5,35.09,50.76,48.85,30.13,68.31,47.9,52.77,38.98,16.71,111.21,120.38,44.95,13.07,12.58,69.39,50.58,19.07,30.6,57.66,51.15,64.1,41.43,27.31,51.91,40.04,23.94,14.65,29.99,26.09,27.9,34.62,14.69,56.15,36.97,70.96,35.39,37.13,79.65,20.04,27.69,16.64,47.4,15.99,37.16,28.27,23.22,9.34,84.39,25.3,82.13,35.96,32.88,23.58,24.74,33.78,22.58,43.29,53.96,53.43,81.46,47.37,26.89,45.28,34.22,35.26,44.96,20.05,15.83,28.6,44.04,84.76,30.96,50.87,33.74,47.23,49.7,35.72,88.67,23.14,61.92,45.1,32.94,6.55,18.65,41.1,19.49,90.57,56.81,23.53,20.31,33.46,22.59,51.37,24.75,29.74,57.93,77.64,25.62,33.98,39.68,181.77,22.86,6.83,30.52,30.07,75.41,29.49,45.69,23.8,22.55,50.15,23.6,564.3,36.61,17.4,189.37,25.2,72.81,31.35,45.8,22.85,11.85,13.4,32.69,23.03,26.33,88.07,70.83,35.84,36.74,51.68,41.98,38.35,41.32,16.16,17.66,48.98,41.01,15.59,31.55,78.32,98.36,139.19,38.24,39.38,18.17,30.35,27.43,8.56,36.47,32.33,254.0,44.36,24.21,11.94,31.73,42.22,10.41,76.35,53.84,27.15,58.94,43.24,34.56,41.32,23.52,24.7,27.98,37.41,54.06,22.11,25.74,23.48,44.01,44.95,14.84,19.08,73.77,42.83,100.53,23.82,40.32,66.62,91.75,50.94,61.08,24.28,38.39,5.21,16.04,43.29,11.59,34.79,25.44,204.48,34.29,19.64,17.36,46.23,25.57,60.04,32.25,42.01,54.23,37.47,24.93,29.94,23.78,69.8,19.28,17.58,20.87,104.48,89.1,37.47,25.19,45.94,29.26,44.0,75.68,6.99,67.45,23.27,14.84,69.33,27.14,46.27,41.26,54.11,50.9,25.15,49.92,14.73,56.7,61.86,57.56,38.41,48.43,23.22,65.92,23.46,49.55,24.59,21.2,17.86,65.46,50.6,19.75,41.44,19.97,29.43,61.72,27.07,13.92,26.89,43.28,34.04,33.7,108.52,113.2,18.18,30.87,59.05,18.6,53.35,57.06,17.65,62.03,16.15,23.39,42.02,34.16,40.94,59.41,29.82,19.07,55.89,39.17,30.09,76.1,66.93,21.92,73.05,41.41,39.3,46.44,23.16,33.59,22.43,25.16,18.67,59.36,50.25,54.38,13.82,51.46,26.01,26.36,57.02,10.53,18.53,18.19,29.41,20.8,18.43,23.07,110.49,51.71,47.04,41.2,70.74,20.53,43.18,25.45,40.94,29.21,76.37,21.94,59.26,48.27,62.49,39.17,78.25,18.32,20.9,55.48,44.95,28.05,28.14,63.77,17.93,24.64,29.62,39.89,23.8,13.01,36.61,30.13,10.99,50.92,4.4,20.48,36.4,14.82,38.5,51.24,45.48,42.13,13.51,36.98,21.35,56.43,30.66,28.31,53.51,35.49,49.14,21.02,57.01,63.12,29.0,30.18,65.3,54.82,51.99,67.03,37.82,53.98,70.05,75.99,31.34,35.11,30.04,32.01,57.3,26.45,19.71,30.71,38.41,74.28,7.74,76.01,27.02,22.97,45.57,26.11,675.12,21.32,22.29,21.48,104.99,97.63,16.93,38.07,19.41,76.67,40.27,14.14,19.18,31.07,52.03,77.69,125.26
2008-02-01 16:00:00,34.29,31.45,133.18,22.05,49.61,53.39,32.2,34.48,25.2,41.35,34.74,41.96,34.57,34.9,19.46,51.74,53.65,66.7,915.43,25.51,60.07,31.04,42.37,18.6,17.21,17.01,8.0,46.66,52.14,38.4,74.63,16.59,75.29,35.11,42.25,95.59,58.31,82.08,39.34,80.64,44.19,68.42,80.42,30.53,44.65,45.22,121.59,72.82,40.96,55.42,32.38,30.98,44.14,93.49,79.8,62.85,99.95,48.71,60.78,17.51,61.76,43.51,196.2,22.33,34.23,23.69,19.12,22.77,90.46,12.37,53.73,83.99,283.38,24.75,18.61,33.52,42.12,63.48,46.75,40.38,19.96,21.89,14.9,37.0,40.82,59.7,23.51,105.66,18.5,35.61,51.43,49.45,30.36,67.35,49.45,54.28,40.4,17.07,109.88,123.05,43.64,13.41,12.71,72.31,52.76,19.33,31.16,58.77,51.31,63.95,40.46,28.06,51.72,39.87,24.37,15.09,30.47,26.24,29.84,34.71,15.67,55.7,37.91,70.31,35.86,37.76,80.88,20.35,28.13,17.09,48.75,16.04,37.64,29.05,23.36,9.26,86.19,26.46,84.51,37.97,33.95,23.58,25.19,34.54,23.98,43.85,53.13,54.27,83.11,48.62,28.81,46.11,34.86,35.17,46.23,21.29,16.13,28.94,45.29,86.82,32.1,50.64,33.15,48.15,49.7,37.21,89.81,23.23,62.99,44.8,33.56,6.76,19.34,42.62,20.06,90.67,57.74,25.02,20.73,34.47,23.16,52.09,25.63,32.01,60.16,91.15,25.74,34.77,40.69,185.94,23.18,6.85,31.01,30.51,76.14,30.16,45.93,24.36,22.97,51.08,23.73,515.9,37.66,17.63,197.18,26.07,73.7,31.88,47.33,22.99,12.43,13.43,33.38,23.96,26.16,89.47,71.71,36.23,37.02,52.68,43.34,39.31,41.98,16.68,17.77,48.66,41.75,16.1,31.4,80.61,100.17,135.45,38.36,40.08,18.75,30.82,27.84,8.62,36.2,33.19,305.61,44.79,25.2,12.53,32.27,43.24,10.6,80.22,54.03,27.25,60.29,44.01,35.35,42.37,23.77,24.82,29.16,39.51,55.22,23.0,25.85,23.97,44.4,45.69,15.03,19.87,74.21,42.58,100.06,24.84,40.53,68.0,91.92,52.72,61.08,23.47,40.71,5.55,16.26,45.09,12.05,36.21,25.79,212.8,35.59,19.98,17.61,46.78,25.97,58.67,33.38,43.23,55.54,38.61,24.93,30.7,24.13,71.16,19.59,17.5,20.77,107.3,91.59,37.37,26.27,44.92,27.33,48.55,77.96,7.81,67.73,23.09,14.92,70.22,27.93,45.83,42.78,54.93,49.94,25.39,51.24,14.88,58.01,62.74,59.94,39.4,50.13,23.78,66.31,23.62,51.04,26.86,21.08,18.39,67.69,53.0,20.08,42.39,20.09,30.62,63.0,28.02,14.38,28.01,42.78,34.54,35.32,107.9,115.2,18.51,31.56,59.72,18.79,54.78,57.61,17.91,63.2,15.64,23.9,43.54,35.19,40.94,60.15,29.82,19.36,57.45,39.61,30.52,77.2,69.42,22.74,75.64,42.27,39.1,49.34,23.57,34.24,22.93,24.89,19.14,59.9,51.22,55.67,14.17,52.29,26.02,26.56,57.85,10.44,18.64,18.48,30.03,20.56,18.52,23.29,108.31,52.71,47.77,42.76,73.44,21.96,45.03,27.55,40.94,29.96,81.6,21.93,58.9,49.2,62.02,40.11,80.01,18.92,21.75,56.72,44.91,28.06,28.65,64.64,18.66,25.35,29.46,40.93,23.61,13.21,37.71,30.27,11.37,52.42,4.55,21.47,37.38,15.05,39.22,52.12,46.85,43.47,13.69,36.42,21.67,57.75,31.4,28.83,54.6,35.86,48.42,21.73,58.48,63.82,29.0,30.54,66.05,54.82,53.59,69.18,38.75,55.0,69.35,79.11,33.13,35.71,29.97,33.18,60.62,27.95,19.9,30.33,39.7,74.65,7.82,76.71,27.63,23.35,45.97,26.01,688.35,21.93,22.9,22.73,106.68,102.66,17.29,39.29,20.71,76.89,40.15,14.47,28.38,32.06,52.61,78.73,127.27
2008-02-04 16:00:00,34.29,31.27,131.09,22.36,50.05,53.63,31.4,35.21,24.85,40.17,34.54,41.22,35.19,35.65,19.64,51.75,53.54,67.68,910.5,24.74,61.18,30.05,41.72,18.03,17.08,16.65,7.92,46.48,50.44,38.31,73.95,15.68,73.13,37.52,41.78,95.6,58.03,81.13,39.46,78.74,45.0,67.97,77.24,30.65,44.14,43.46,117.6,72.95,40.05,55.75,30.74,29.68,44.13,94.4,80.74,61.67,98.31,47.96,62.06,16.13,63.29,42.61,195.54,21.73,33.81,23.14,19.18,21.6,90.02,12.85,53.34,83.05,278.9,24.15,18.47,33.82,42.05,62.76,46.74,40.39,19.1,21.93,14.84,36.56,38.31,57.29,24.36,108.18,18.5,35.87,50.13,49.15,30.28,66.69,48.71,52.25,38.4,16.71,111.49,116.94,46.47,13.56,12.86,73.01,48.76,19.67,29.81,58.67,50.93,63.19,40.06,27.85,51.77,39.82,23.28,14.82,29.71,26.13,29.66,35.06,15.61,54.56,37.29,69.91,36.38,37.5,80.23,20.02,27.69,15.55,48.16,15.35,37.4,29.28,23.36,8.86,84.47,27.05,85.62,37.83,33.4,23.58,24.13,34.79,23.35,44.66,53.77,54.21,83.64,46.5,28.81,46.65,35.16,34.76,46.92,20.94,16.01,28.86,45.95,88.0,31.56,52.24,32.06,49.17,47.5,36.67,91.61,23.5,64.24,43.85,33.26,6.59,18.92,42.19,18.26,89.05,58.62,23.94,19.41,33.95,23.17,51.64,24.74,31.94,58.77,89.94,25.59,33.31,40.92,192.9,22.84,6.89,31.47,28.84,75.73,29.5,46.29,24.26,22.93,50.57,23.44,495.43,37.08,17.07,190.56,25.38,73.53,32.81,46.93,22.64,11.58,13.17,33.21,23.4,25.22,87.84,70.99,36.24,36.23,52.92,42.86,40.34,41.64,16.48,17.78,48.83,41.72,16.1,31.05,77.79,99.12,136.25,38.26,39.68,18.26,30.77,27.48,8.61,36.19,33.02,307.5,44.86,24.47,12.6,32.18,41.54,10.47,78.02,54.12,26.4,60.76,42.16,35.14,42.41,23.43,24.87,28.58,38.66,54.4,22.63,25.58,23.98,43.42,46.01,14.61,18.41,73.9,42.5,99.54,24.13,40.86,67.64,93.33,51.98,61.08,22.76,39.83,5.4,15.41,45.02,11.78,34.57,24.91,213.37,33.93,18.97,17.72,46.49,25.62,59.06,32.66,42.96,54.76,38.19,24.93,30.45,23.73,70.6,20.03,17.42,21.01,106.99,96.47,38.58,26.18,44.72,27.1,46.75,74.67,7.81,68.14,22.24,15.09,71.81,29.52,45.67,44.57,56.13,47.76,25.89,51.69,15.32,56.37,63.09,61.5,40.12,48.66,23.51,65.18,24.21,49.98,26.02,20.47,18.34,68.9,53.01,20.53,42.94,19.63,29.97,63.03,27.75,13.98,27.54,41.52,34.79,34.7,105.68,114.4,18.72,31.29,60.06,18.82,53.52,57.7,17.63,62.37,15.05,24.21,43.21,35.7,40.94,58.29,30.33,19.88,56.79,39.76,31.26,76.11,68.88,22.12,73.98,42.93,38.78,50.93,23.73,34.64,22.36,24.36,19.33,59.14,51.39,55.4,13.35,53.83,26.19,26.69,58.13,10.74,18.57,18.45,30.61,20.32,18.82,22.92,105.9,50.86,47.55,42.33,74.2,20.49,45.02,27.08,40.94,30.19,80.46,21.28,58.74,50.18,60.53,39.89,78.81,18.75,21.0,56.55,44.26,28.58,28.65,64.35,18.51,25.22,29.37,40.78,24.27,13.47,38.54,30.22,11.22,49.66,4.69,21.25,35.49,14.74,38.71,50.85,46.58,42.76,13.35,35.72,21.2,57.08,30.95,28.5,54.6,36.71,48.23,21.77,57.44,62.9,27.73,29.67,65.99,54.82,53.58,66.14,38.71,54.91,67.54,78.61,32.48,35.36,29.87,32.39,60.06,28.46,20.2,28.29,39.46,71.06,7.73,76.59,27.83,23.64,44.97,26.13,684.03,21.5,22.42,21.89,101.79,98.19,17.43,38.11,19.83,76.43,40.1,14.18,29.33,32.57,51.25,77.07,125.67
2008-02-05 16:00:00,33.43,29.98,128.81,21.84,49.43,52.48,30.81,33.96,23.94,38.2,33.57,39.85,34.17,34.47,19.9,51.0,52.02,65.51,869.43,23.36,59.91,29.95,40.78,17.33,16.92,16.31,7.21,45.63,47.65,36.71,72.09,14.99,71.47,35.7,40.46,92.51,55.25,79.83,37.76,77.07,43.15,66.72,74.34,32.18,42.8,41.67,114.8,71.88,38.54,54.37,29.57,28.71,42.05,91.64,79.7,60.36,93.09,46.63,61.11,15.55,60.52,40.83,186.51,21.2,32.6,22.72,18.7,21.21,90.9,12.77,50.19,80.39,258.19,23.07,17.94,33.0,40.1,59.73,45.98,38.67,17.75,20.81,14.51,35.11,37.12,55.61,23.94,100.98,18.5,34.89,50.04,47.48,29.53,66.86,46.2,51.13,36.96,16.04,106.05,114.88,44.27,13.11,12.5,69.79,46.49,18.92,28.49,56.93,48.58,61.2,39.63,27.25,52.78,42.23,22.73,14.31,28.82,25.43,28.6,34.46,15.65,54.83,36.1,67.96,35.16,36.66,75.94,19.12,26.99,15.04,48.46,14.32,36.64,28.49,22.09,8.5,81.78,26.2,82.56,37.03,32.49,23.58,23.46,33.64,22.82,42.99,51.32,52.63,81.0,45.41,27.78,44.91,34.5,32.71,45.62,20.51,15.52,28.54,43.96,84.93,30.24,51.12,31.51,46.85,44.9,35.4,86.87,23.55,61.46,42.79,31.7,6.34,18.39,39.75,17.19,86.38,56.23,22.32,17.71,32.93,22.55,50.1,23.52,31.0,53.59,86.54,24.86,34.58,41.28,178.0,22.08,6.61,30.51,28.22,73.99,28.53,44.57,23.78,21.56,48.01,22.21,506.8,36.72,16.56,180.18,24.47,72.48,32.22,45.1,22.51,11.37,13.01,31.97,22.4,24.05,83.06,68.18,35.28,34.33,51.66,43.19,38.25,40.62,15.97,17.71,48.47,40.97,15.9,30.69,76.72,96.45,124.65,37.73,39.25,17.43,29.54,26.66,8.24,35.43,32.47,307.88,43.63,24.0,11.98,30.67,40.51,10.16,73.75,53.61,25.5,57.51,40.03,32.96,41.62,22.86,24.43,27.52,37.3,53.9,20.4,25.04,23.38,41.81,44.05,14.32,17.74,72.66,41.72,97.14,23.54,40.2,65.02,91.63,48.32,61.08,22.13,38.68,5.08,15.02,44.23,11.58,34.06,23.12,204.26,34.14,18.54,17.02,46.45,24.87,57.15,31.51,42.48,52.23,37.63,24.93,29.89,23.42,69.3,19.48,16.97,20.26,100.72,90.83,37.34,25.14,42.42,26.09,44.04,73.41,7.84,65.95,21.6,14.61,68.27,27.8,42.03,41.57,53.74,46.42,25.26,49.45,14.66,55.5,61.44,59.28,39.1,47.17,22.52,62.6,23.48,48.28,24.39,20.08,18.57,59.15,51.96,19.84,41.21,18.71,29.07,60.66,26.99,13.94,26.64,38.82,33.69,33.18,98.28,111.71,17.56,30.38,58.96,18.29,47.52,56.73,17.59,60.69,14.57,24.06,40.98,34.51,40.94,57.25,29.43,19.35,55.01,38.21,32.67,70.76,66.01,20.75,71.78,41.03,37.73,50.84,23.23,33.19,21.6,23.36,18.68,56.21,49.13,53.92,13.05,52.16,25.44,25.74,56.89,9.87,17.97,17.8,29.93,18.92,18.3,22.74,102.3,50.13,46.44,42.35,72.18,19.49,43.62,27.08,40.94,29.36,75.96,20.53,56.28,48.49,58.36,38.92,76.94,19.19,20.16,53.49,42.85,27.11,28.1,62.76,17.85,24.95,28.27,39.45,23.57,12.83,37.25,29.13,10.53,48.47,4.63,20.26,34.42,14.63,37.88,49.99,44.38,41.37,13.1,34.57,20.54,54.73,30.09,27.2,52.34,36.44,47.75,21.0,56.04,62.06,26.67,28.8,64.48,54.82,52.28,63.95,37.51,52.3,62.24,75.93,31.26,34.2,28.49,31.93,59.28,28.07,19.94,27.46,38.68,78.38,7.45,76.36,26.87,23.14,44.51,26.37,666.13,20.76,21.46,20.92,108.99,94.01,17.0,37.22,19.29,73.46,39.01,13.96,28.98,31.62,49.99,76.48,122.3
2008-02-06 16:00:00,33.47,29.89,121.48,21.64,49.77,53.11,31.07,32.76,23.7,37.5,32.95,38.72,34.16,34.99,19.44,51.8,51.9,65.79,855.8,23.01,58.71,29.73,40.33,16.77,16.9,15.75,6.74,45.84,47.0,37.5,68.49,14.92,69.18,34.46,40.4,92.15,53.76,79.48,37.59,72.82,43.15,67.5,74.47,32.47,42.62,41.82,114.0,70.66,38.5,53.99,29.04,28.51,42.15,91.24,79.88,60.11,91.24,47.02,60.51,15.16,60.52,41.11,181.99,21.29,32.56,22.48,19.01,20.12,90.8,12.63,48.88,78.32,256.95,22.64,17.95,32.79,38.65,60.14,46.47,38.2,18.14,20.7,14.54,34.8,37.01,57.38,23.47,104.8,18.5,34.73,49.48,48.44,29.56,66.49,46.66,49.82,36.41,16.12,87.4,108.6,43.71,13.12,12.47,68.98,45.89,18.59,28.51,56.74,46.91,60.1,39.79,27.28,47.88,40.94,22.55,14.38,28.72,25.46,27.3,33.9,15.38,54.42,36.44,66.06,34.96,36.76,75.77,19.07,27.14,15.01,48.23,13.72,36.25,29.85,22.25,8.28,80.21,25.74,80.4,36.67,32.38,23.58,23.07,33.77,22.81,43.73,47.22,53.0,82.57,44.41,27.79,44.45,34.5,32.3,45.03,20.7,15.44,28.05,43.27,85.24,31.06,50.97,31.07,46.58,46.0,34.78,86.33,22.73,61.73,42.42,32.57,6.22,18.0,39.32,16.84,86.94,56.36,21.47,17.69,32.58,22.37,49.59,23.79,31.29,53.61,86.43,25.03,33.53,41.51,171.71,22.09,6.52,30.34,27.34,74.04,28.53,44.87,23.76,21.34,47.93,22.45,501.71,37.18,16.71,177.62,23.97,72.33,31.63,38.17,21.78,11.25,13.1,30.9,22.44,23.76,79.54,67.72,35.27,34.04,51.33,42.59,38.02,39.84,15.76,17.54,48.05,41.07,15.52,30.54,73.94,95.5,115.9,38.08,38.92,17.26,29.0,26.34,8.1,35.72,32.56,293.78,43.44,23.64,12.57,30.22,38.98,12.8,72.82,53.76,25.11,58.15,39.88,32.32,42.43,22.49,24.69,27.25,36.71,53.79,20.31,25.18,23.38,41.49,43.5,14.32,18.05,73.41,44.37,96.11,23.14,40.33,64.76,89.78,49.24,61.08,21.74,37.96,4.96,15.01,44.67,11.83,34.02,22.05,202.46,33.27,18.45,17.15,46.36,24.52,55.07,31.09,42.39,51.9,36.35,24.93,30.39,23.18,69.38,18.98,16.88,20.08,99.61,91.56,37.15,24.55,41.85,25.6,43.88,73.32,6.99,64.97,21.45,13.81,67.15,28.95,40.16,39.78,53.81,46.79,26.02,49.05,14.69,55.71,60.76,55.31,38.91,47.9,21.61,62.72,23.23,47.96,24.31,20.22,18.65,57.49,51.05,19.45,41.32,19.12,28.85,59.03,26.48,13.92,26.73,39.94,33.68,32.73,93.36,108.23,17.07,30.45,57.9,18.25,48.29,56.97,17.64,60.28,14.06,23.94,41.23,34.62,40.94,57.57,29.44,19.34,55.28,37.86,33.34,70.06,65.25,20.48,70.97,39.96,36.74,52.45,23.64,33.03,21.11,23.43,18.26,61.82,48.37,53.58,12.84,52.71,25.2,27.3,56.33,9.62,17.85,17.45,29.76,18.87,18.76,22.75,97.67,49.06,46.74,41.53,70.23,19.47,43.79,26.11,40.94,29.12,73.56,20.34,54.89,48.5,58.65,39.4,76.16,19.09,20.32,52.6,42.55,26.55,28.21,63.06,17.78,24.9,28.01,39.99,23.35,12.65,37.7,31.04,10.64,46.86,4.63,20.0,33.6,14.52,37.99,53.78,44.29,41.48,13.07,33.82,20.22,53.04,30.7,26.97,51.92,37.24,47.73,21.16,56.27,62.07,26.68,28.83,64.05,54.82,50.91,67.18,38.18,51.62,62.54,73.79,30.1,32.93,28.39,31.54,59.38,28.09,20.01,27.39,38.74,78.81,7.33,76.71,27.11,23.08,43.86,26.37,687.03,20.97,21.19,20.39,105.35,91.75,16.81,37.2,18.7,72.86,38.71,13.87,28.57,31.09,50.58,76.46,121.32
2008-02-07 16:00:00,32.26,30.24,120.72,21.5,50.09,53.38,30.5,32.62,24.01,37.54,33.19,38.57,33.78,35.01,19.42,50.52,52.97,66.37,848.41,23.75,55.88,32.41,40.87,16.5,17.15,15.9,6.59,46.04,47.79,36.87,70.91,14.81,72.39,35.48,40.54,94.91,53.51,79.32,37.82,72.96,43.14,69.5,75.35,33.49,42.82,42.35,116.6,70.52,39.45,54.71,30.39,29.15,43.0,92.09,82.01,60.02,93.27,47.28,60.69,16.8,61.58,42.1,182.1,21.37,33.25,22.75,18.63,20.08,90.76,12.24,50.97,79.28,254.85,22.59,17.96,33.61,38.29,60.44,46.46,38.62,18.83,20.97,14.71,33.21,37.24,57.95,23.85,103.79,18.5,35.35,50.82,47.9,29.73,67.53,47.57,49.55,37.22,15.99,95.11,107.73,44.76,13.21,12.4,71.18,46.75,18.91,28.97,55.56,47.58,61.09,40.92,27.46,50.84,41.22,22.85,14.35,28.34,25.18,27.28,33.72,15.83,54.82,37.21,67.11,34.9,37.13,74.57,19.43,26.99,15.43,48.57,13.94,36.45,30.06,22.53,8.66,80.56,26.04,77.93,36.96,32.27,23.58,23.48,33.1,22.89,42.69,46.56,52.6,84.2,44.78,27.84,44.9,34.3,32.55,44.71,21.03,15.24,28.1,43.54,87.44,31.95,51.52,31.35,47.45,48.2,34.76,86.98,22.72,61.81,43.88,33.95,6.09,18.86,40.29,18.82,87.51,56.63,21.73,18.04,33.18,22.34,51.22,24.09,31.36,51.02,90.77,24.22,35.02,41.38,165.6,21.89,6.5,29.64,27.54,74.45,28.55,44.43,23.94,21.93,47.82,22.07,504.95,37.53,17.91,180.75,24.21,72.85,31.74,39.95,22.55,11.43,13.29,31.75,23.45,24.4,84.7,67.14,35.43,34.38,51.42,42.54,39.17,38.28,15.85,17.77,47.96,41.38,16.12,30.47,71.85,94.34,130.39,38.17,40.48,17.37,28.94,27.02,8.1,35.34,32.05,298.65,43.03,23.38,12.35,30.61,42.3,12.12,71.83,53.56,24.7,60.37,41.15,33.51,42.9,22.78,24.82,28.37,37.05,53.59,20.0,25.5,23.38,44.32,43.35,14.29,17.96,77.76,43.71,96.37,23.48,40.19,66.23,89.98,49.59,61.08,22.03,38.22,4.78,15.52,44.81,12.76,33.22,23.13,198.43,33.46,18.49,17.41,46.99,24.9,55.13,34.33,42.69,55.34,37.69,24.93,30.1,23.04,69.33,19.44,17.19,19.73,97.31,91.87,37.14,24.76,41.79,25.24,43.69,74.3,7.12,65.94,21.72,13.09,67.4,30.0,40.08,41.49,53.57,47.12,26.85,48.36,14.54,56.39,61.67,56.12,38.05,47.91,21.84,64.89,23.21,48.77,24.55,20.25,18.89,58.4,52.0,19.58,41.66,18.65,29.68,59.37,26.56,14.2,26.83,40.72,33.12,33.25,101.13,109.42,17.08,30.58,61.09,18.31,49.76,57.37,17.75,59.71,14.55,24.19,42.5,34.96,40.94,58.39,29.14,19.33,55.01,37.72,33.61,64.62,66.06,20.24,72.81,41.69,37.93,52.54,23.97,33.6,21.56,23.69,18.18,61.86,48.19,52.41,13.25,54.81,25.27,26.66,57.77,9.56,17.76,17.82,29.84,19.09,18.6,22.93,102.68,50.26,47.12,42.43,71.08,20.63,43.48,26.56,40.94,28.85,74.82,20.96,56.15,48.24,59.84,39.1,79.15,19.45,20.68,53.69,42.97,27.14,28.3,64.89,18.08,25.17,28.47,40.14,23.25,12.67,37.62,31.37,10.64,49.71,4.5,20.51,34.93,14.7,38.84,55.22,45.65,41.39,12.99,34.66,20.4,54.59,30.36,26.72,53.63,36.62,47.39,21.54,56.79,62.45,28.95,29.3,63.69,54.82,51.37,69.32,38.23,52.22,63.28,75.6,30.65,33.84,28.58,31.74,60.57,27.21,19.95,27.73,37.95,79.59,7.33,75.44,26.91,23.17,44.76,26.34,687.95,20.73,21.32,20.89,110.11,92.79,16.82,36.45,18.92,73.58,39.89,13.84,29.04,31.26,50.69,78.08,122.12
2008-02-08 16:00:00,31.84,31.14,124.94,21.44,48.97,51.58,31.2,33.19,24.05,37.64,32.94,38.94,33.63,34.6,19.14,49.29,53.03,62.42,832.48,22.57,57.16,32.34,39.93,16.77,16.64,16.15,6.34,45.87,47.18,37.37,73.5,15.51,71.68,35.77,39.49,97.68,54.83,79.28,37.05,73.94,43.25,70.8,73.4,33.23,42.47,41.01,115.62,70.15,38.35,54.65,29.88,28.12,42.53,92.33,82.34,59.05,91.54,47.68,60.48,16.49,61.5,42.09,182.28,21.36,32.65,22.71,18.41,20.85,91.84,12.33,52.1,76.24,248.45,22.64,17.72,33.93,39.39,60.16,45.99,38.41,17.97,21.1,14.61,33.9,37.2,58.37,23.93,105.39,18.5,36.49,49.41,47.25,29.53,66.37,50.75,49.09,36.57,15.7,93.12,108.3,45.77,13.17,12.26,73.93,45.7,20.24,29.08,55.15,48.13,59.66,40.43,26.89,50.87,41.32,23.0,14.52,28.19,25.36,31.84,34.5,15.72,53.53,37.59,67.56,34.66,37.34,75.01,19.45,26.64,14.87,48.48,13.26,36.33,30.44,22.08,8.45,81.11,27.24,79.01,36.55,32.76,23.58,23.46,33.17,23.13,42.69,47.87,52.6,85.78,44.57,28.07,44.82,34.06,32.21,44.22,20.68,15.48,28.5,44.09,91.36,30.98,52.32,31.27,48.48,51.7,34.81,86.1,22.12,61.73,41.58,35.93,6.0,18.87,42.05,18.22,85.41,56.23,21.81,17.32,32.98,22.15,50.8,23.45,32.09,53.24,89.42,24.05,35.42,40.25,173.19,22.88,6.51,29.77,27.29,74.38,28.23,44.53,23.51,21.96,48.86,22.34,516.69,37.11,18.03,177.53,23.69,70.61,31.89,39.17,22.76,11.1,13.15,31.02,23.17,24.03,86.45,65.45,35.47,33.41,50.6,42.2,40.29,39.58,15.75,17.72,49.18,41.06,15.66,30.02,71.99,95.2,127.8,37.96,40.09,17.56,29.42,27.13,7.92,34.52,32.83,300.68,42.68,22.81,12.21,30.09,42.47,11.94,72.84,52.89,25.46,59.88,39.97,33.0,42.51,22.18,24.31,26.65,37.56,53.19,19.9,25.85,23.73,43.18,43.23,13.9,18.1,79.11,44.03,95.95,23.67,39.41,64.22,89.92,48.45,61.08,21.69,38.52,4.89,15.2,45.21,12.66,32.98,22.29,203.11,33.02,18.04,17.05,48.01,25.17,55.11,33.44,42.22,53.16,35.63,24.93,29.89,22.64,68.84,19.12,16.96,19.8,102.92,94.29,36.19,26.42,40.21,25.64,43.08,73.7,6.69,67.12,21.8,12.98,69.45,30.0,40.77,42.95,53.17,48.12,26.88,49.77,14.44,56.27,61.64,54.76,37.61,48.45,22.47,63.37,22.99,51.4,24.99,19.71,18.61,57.49,53.45,19.72,41.64,18.64,29.68,60.7,26.6,14.08,27.03,39.69,33.0,32.94,101.79,108.08,16.72,31.34,60.57,18.01,49.23,56.71,17.59,59.6,14.31,23.86,41.61,35.22,40.94,57.32,28.93,19.21,55.04,37.21,34.66,65.05,63.15,20.69,71.97,43.06,38.84,52.17,24.19,34.14,20.68,23.44,18.2,62.33,47.8,53.1,13.05,56.04,24.92,26.6,57.38,9.44,17.67,17.56,29.87,18.48,18.67,22.94,98.59,49.76,47.46,41.87,72.59,19.81,43.06,26.61,40.94,28.71,71.66,21.08,55.84,48.02,58.29,40.58,78.65,19.84,20.23,55.92,42.64,29.03,28.49,64.71,17.9,24.85,27.99,40.29,22.66,12.66,37.2,30.9,10.53,48.24,4.27,20.94,36.46,14.26,37.75,55.15,44.71,40.78,13.0,36.06,20.2,54.05,30.46,27.07,53.29,36.26,46.59,21.09,57.28,61.44,30.31,29.05,63.58,54.82,51.43,69.15,38.55,53.83,62.81,72.45,30.83,32.89,28.17,32.05,60.16,28.2,19.91,26.84,38.35,77.54,7.73,74.48,27.23,23.64,43.79,26.0,664.23,20.63,20.54,20.61,108.66,94.79,16.82,36.1,19.12,73.41,40.02,14.05,29.2,31.06,49.73,77.42,121.34
2008-02-11 16:00:00,31.7,31.42,128.9,20.98,48.57,50.93,31.4,33.84,24.46,39.03,33.42,39.25,33.52,34.81,19.37,48.72,52.59,63.48,734.9,22.1,55.68,34.0,39.2,17.22,17.05,16.66,6.28,45.7,46.3,38.43,75.19,15.6,73.67,36.43,39.06,100.5,57.04,80.69,37.88,73.03,44.83,74.6,72.2,33.0,42.46,40.69,117.59,71.74,38.33,54.86,30.55,27.85,43.14,92.94,81.76,59.26,91.27,47.85,61.12,18.63,60.94,42.14,179.84,21.55,33.4,23.12,18.32,21.07,92.9,12.41,54.65,74.92,246.35,22.83,17.92,33.72,40.69,61.41,44.9,39.08,18.64,21.04,14.74,34.75,37.71,58.01,23.81,108.55,18.5,38.86,49.76,46.82,29.32,67.52,54.62,49.1,35.52,15.67,93.93,110.05,47.38,13.19,12.17,77.19,43.69,21.02,29.29,55.7,49.14,60.38,39.51,26.99,54.8,42.04,22.98,14.78,27.98,25.31,32.1,34.97,15.7,51.87,38.17,68.55,34.52,37.74,76.72,19.93,26.81,14.44,48.35,13.57,36.44,30.26,21.73,8.78,80.43,27.89,79.87,37.03,32.36,23.58,25.34,33.2,23.28,42.94,48.74,52.6,89.74,46.35,28.17,45.13,33.89,33.04,44.51,20.82,15.65,28.88,44.55,95.54,30.29,54.06,31.18,49.44,49.7,34.75,88.29,22.35,63.95,42.73,35.4,6.3,19.4,43.26,19.44,85.85,56.45,22.2,17.07,33.23,22.43,51.26,22.82,32.36,54.73,92.09,24.87,35.5,40.49,189.64,23.71,6.47,29.74,26.75,74.32,28.37,44.6,23.97,22.04,48.86,21.66,521.16,37.52,18.21,176.39,24.54,70.36,32.7,40.8,23.24,10.81,13.02,30.33,22.58,24.65,88.07,62.46,35.85,33.76,50.43,42.9,41.25,40.29,15.76,17.71,49.69,41.23,15.41,30.29,71.6,96.92,130.15,38.14,42.72,17.92,29.67,27.8,7.97,34.56,32.68,301.82,42.75,22.43,12.94,31.36,44.53,13.59,74.95,52.77,25.82,61.1,39.54,33.79,42.87,21.66,24.74,26.13,37.76,53.3,19.78,25.96,23.96,45.5,39.62,14.06,18.59,79.22,43.15,96.77,23.96,39.41,64.68,91.49,46.94,61.08,22.29,39.52,4.99,15.31,46.06,12.67,32.48,23.09,203.6,33.64,18.64,17.08,48.3,25.31,55.13,33.71,42.76,51.41,36.05,24.93,30.64,21.84,69.47,19.19,16.8,20.07,106.77,97.53,36.82,26.33,39.6,25.32,44.27,72.42,6.83,68.85,21.9,12.92,71.48,31.54,41.11,43.14,53.4,47.77,26.89,52.7,14.29,56.29,61.98,57.46,38.05,49.14,22.19,63.43,23.14,51.36,25.07,19.92,18.49,58.13,55.24,19.87,41.53,18.89,29.81,62.4,26.83,14.03,27.09,40.21,33.27,32.33,102.8,109.37,16.32,31.35,61.57,17.93,48.59,57.57,17.36,59.2,14.57,24.18,40.84,35.71,40.94,56.48,28.87,19.32,55.41,38.16,35.08,60.97,62.21,21.57,73.37,43.55,38.78,52.47,23.94,35.49,20.5,23.24,18.24,63.06,48.15,53.03,13.24,58.74,24.93,26.43,58.69,9.73,17.66,17.81,29.49,18.99,18.84,23.29,101.07,49.77,49.15,42.57,75.52,19.24,43.95,26.47,40.94,28.66,71.43,21.19,54.56,47.6,57.62,41.55,79.55,20.19,20.51,56.44,43.54,30.93,28.62,64.56,17.72,25.13,28.37,40.51,22.6,12.62,37.14,31.37,10.83,49.79,4.26,21.2,36.32,14.53,37.37,55.63,44.35,40.21,12.89,35.23,20.14,54.81,30.54,27.58,53.82,36.13,46.61,20.64,57.35,62.16,30.5,28.83,63.78,54.82,52.36,70.56,38.49,53.96,62.16,71.27,32.64,32.19,28.46,32.81,60.75,28.4,19.85,26.9,40.36,77.67,7.75,73.52,26.81,24.58,44.55,25.75,670.77,20.9,21.05,20.64,109.47,96.26,16.82,33.58,19.61,74.77,39.53,14.01,29.87,31.31,49.21,77.38,121.96
2008-02-12 16:00:00,31.69,30.89,124.33,21.21,48.24,50.8,32.32,34.38,24.48,39.61,34.17,38.48,33.65,35.18,19.14,49.18,54.63,63.92,757.9,22.89,55.08,33.14,39.52,16.91,17.52,16.33,6.41,45.85,48.17,39.06,74.45,15.52,72.95,33.01,39.64,101.73,56.91,81.6,37.43,72.93,44.95,73.13,75.96,34.31,42.8,41.1,116.25,73.89,38.95,55.4,30.72,28.53,42.71,93.92,82.82,59.35,91.07,48.51,61.31,18.17,60.56,42.65,183.84,21.68,33.05,23.01,18.51,20.47,93.18,12.52,52.22,76.73,250.17,22.81,18.0,33.93,40.28,61.92,46.14,39.5,19.26,21.22,15.23,34.99,38.61,56.83,24.19,110.07,18.5,39.03,49.94,46.73,29.4,68.51,54.08,48.88,36.18,15.85,95.51,106.05,46.61,13.49,12.34,73.39,44.28,21.19,30.01,56.31,48.78,60.76,40.56,27.34,54.45,41.8,22.9,14.78,27.96,25.72,33.38,35.24,15.77,53.55,38.35,69.14,34.97,38.72,78.67,19.71,26.66,14.26,48.98,13.28,36.41,30.35,21.82,8.81,81.45,27.98,78.83,37.53,32.94,23.58,26.51,33.43,23.88,43.41,47.9,54.0,88.11,48.85,27.71,45.22,34.16,33.51,45.04,20.82,15.74,28.76,44.65,95.05,31.97,53.17,32.49,49.55,49.8,35.14,88.98,22.58,64.78,39.05,35.05,6.37,19.22,42.91,19.0,85.51,57.19,21.67,17.59,33.53,22.68,51.5,23.79,32.02,55.76,92.3,25.25,34.66,40.76,175.56,23.85,6.54,29.91,26.6,74.98,28.67,45.09,24.06,21.76,47.75,22.12,518.09,37.57,18.17,171.44,24.64,69.88,32.68,40.68,23.7,11.01,13.34,30.98,22.24,24.38,86.83,63.7,36.13,35.22,50.33,44.42,41.09,40.52,15.76,17.99,49.38,41.59,16.17,31.46,69.92,98.21,133.56,38.6,43.27,18.11,29.73,28.4,8.09,35.62,32.54,296.68,43.12,22.64,12.73,31.19,42.96,12.62,75.7,53.69,25.93,61.54,39.51,33.71,43.7,22.54,24.67,27.31,37.34,54.04,19.29,26.14,23.78,45.66,41.16,13.99,18.32,79.52,43.5,96.56,23.94,40.03,65.34,91.15,49.38,61.08,22.22,37.89,4.99,15.14,46.06,12.62,32.07,22.84,201.52,34.06,16.59,17.52,48.64,25.57,55.33,35.82,43.64,53.49,36.45,24.93,31.24,22.44,69.31,19.35,16.8,20.18,107.72,98.39,37.81,26.41,39.77,25.44,44.23,72.98,7.02,67.57,21.9,12.93,71.25,30.68,41.75,43.66,53.9,45.49,26.9,50.72,14.4,56.95,61.92,58.15,38.59,48.09,21.53,64.73,23.37,51.52,26.0,20.17,18.35,57.26,54.67,19.69,43.02,18.86,29.51,62.1,27.64,14.08,27.24,40.1,33.31,33.18,103.0,115.08,16.56,32.13,62.44,18.32,49.8,58.58,17.51,59.78,14.05,24.05,42.44,35.65,40.94,57.71,29.35,19.57,55.64,38.49,34.47,62.48,63.88,20.79,74.54,43.57,37.93,52.44,23.52,35.76,21.13,23.31,18.1,64.97,49.08,53.63,13.37,57.74,25.14,27.0,58.02,9.99,17.88,17.99,29.83,18.71,18.85,23.12,99.07,49.75,49.32,42.63,76.45,18.9,43.98,25.93,40.94,29.08,73.54,21.17,55.17,48.83,58.61,42.33,79.31,20.57,21.01,55.52,43.38,30.49,28.63,65.78,17.76,25.14,28.87,44.35,21.75,12.62,37.04,31.44,10.76,49.53,4.2,20.46,36.83,14.42,38.02,56.49,45.08,41.81,12.94,34.79,20.55,55.31,31.69,27.72,53.78,36.5,46.65,21.49,57.39,63.08,29.78,29.38,64.89,54.82,53.19,70.97,39.22,52.84,61.2,73.45,32.72,32.76,29.05,33.11,62.08,28.99,19.98,27.24,40.55,79.55,7.79,73.75,27.62,24.33,45.13,26.28,676.94,20.5,20.56,21.37,109.43,95.5,17.04,33.2,19.51,75.81,39.7,13.8,29.57,31.72,49.3,77.93,123.09
2008-02-13 16:00:00,32.52,32.75,128.85,21.0,48.73,51.27,32.94,35.0,24.72,39.95,34.62,38.74,33.75,35.16,19.47,47.89,55.05,64.04,747.72,23.17,54.44,34.24,40.3,17.37,17.41,18.0,6.7,46.37,48.11,39.55,77.73,15.62,72.33,36.48,39.34,105.05,57.77,81.98,38.84,73.83,45.41,76.54,77.64,34.47,43.41,42.72,116.26,75.59,39.41,55.74,30.82,28.42,42.42,93.63,83.23,59.89,92.91,46.3,63.81,18.0,63.24,43.13,183.24,21.87,33.35,23.23,19.04,20.64,95.36,12.59,55.1,76.37,251.41,23.28,17.89,34.0,41.97,63.38,46.03,40.12,19.7,21.83,15.33,35.11,38.89,57.36,23.86,112.95,18.5,39.89,50.27,46.49,29.57,68.86,54.89,49.99,35.71,16.39,96.37,109.7,48.71,13.27,12.33,76.42,45.8,21.46,30.81,56.55,50.22,62.1,40.51,27.25,55.93,42.49,23.51,15.09,28.8,26.18,33.56,36.78,16.1,52.51,38.69,70.5,35.4,38.68,77.81,20.31,24.97,14.54,48.74,13.53,37.65,31.06,22.8,8.89,82.84,28.59,82.48,38.78,33.1,23.58,27.35,33.07,24.83,43.27,48.88,54.19,89.17,48.87,27.85,44.79,34.14,33.93,45.61,20.85,15.81,28.88,46.26,97.21,32.18,53.36,32.4,51.57,51.2,35.68,89.87,22.0,64.47,39.03,35.96,6.49,19.89,43.57,18.91,86.56,57.31,22.61,17.64,33.53,22.74,52.25,23.75,32.56,58.3,94.36,25.81,36.13,41.3,228.46,24.74,6.87,29.72,26.87,75.07,29.18,45.45,24.23,22.57,46.02,22.13,534.62,38.13,18.28,170.99,25.32,71.32,33.72,42.33,23.85,11.22,13.32,31.26,22.71,24.35,88.47,63.16,36.28,35.29,51.47,44.56,41.99,41.63,16.05,17.78,50.27,41.53,16.08,31.29,68.79,99.95,137.68,38.77,42.68,18.37,31.14,28.76,8.19,37.11,32.7,308.54,44.0,22.77,13.27,31.81,42.67,13.3,78.53,54.07,27.48,62.21,40.23,33.8,44.22,22.32,24.94,27.09,38.43,53.8,19.29,25.91,24.48,44.73,41.48,14.04,18.52,80.5,43.17,98.05,24.45,39.86,65.4,92.56,50.08,61.08,22.2,39.6,5.26,15.16,45.79,12.94,32.34,22.5,202.27,33.28,16.86,17.89,48.87,25.66,55.23,36.67,44.02,54.1,36.81,24.93,31.29,22.34,71.31,19.26,16.9,20.4,106.75,98.03,38.66,27.08,40.25,26.0,44.88,73.13,7.39,69.25,22.17,13.0,73.3,31.51,42.21,45.39,54.19,46.24,27.31,50.53,14.36,58.05,62.48,61.1,38.43,49.1,23.04,65.57,23.36,52.57,27.02,20.55,18.24,57.1,54.3,19.87,43.21,19.1,29.4,63.84,28.52,14.02,28.16,41.94,33.3,32.88,104.96,117.45,16.58,32.16,62.15,18.37,51.28,58.44,17.55,62.42,14.59,24.34,42.38,36.52,40.94,57.57,28.63,19.71,56.07,38.67,34.7,64.56,64.43,20.84,74.88,43.67,38.92,53.3,23.45,37.47,21.02,23.98,18.61,65.29,52.03,55.12,13.32,58.69,25.14,27.54,58.74,10.13,18.23,18.13,29.58,19.04,18.95,23.09,101.14,49.52,50.11,43.02,79.64,20.11,45.49,27.11,40.94,29.02,73.55,21.08,55.87,48.68,58.5,42.36,79.13,21.03,21.1,56.15,44.35,31.7,28.67,66.72,18.13,25.54,29.76,45.07,23.18,12.42,36.69,32.02,11.0,50.09,4.21,21.44,36.49,14.57,38.36,56.88,45.49,42.04,13.15,35.54,21.01,55.04,32.4,28.22,54.81,36.83,45.4,21.84,57.56,63.99,29.85,29.59,65.81,54.82,53.76,71.16,39.8,54.22,63.08,74.36,33.93,33.12,29.91,33.07,61.34,29.51,19.8,27.74,40.65,79.84,7.93,72.33,28.38,24.76,45.5,26.79,671.62,20.78,20.78,20.96,101.28,100.54,17.1,32.61,20.04,76.81,39.46,14.2,29.88,32.48,49.02,78.06,124.35
2008-02-14 16:00:00,31.39,32.62,126.92,20.69,47.74,50.95,32.73,34.96,24.53,39.68,34.44,38.7,33.4,34.5,19.29,47.85,54.95,62.97,747.39,22.79,56.35,33.29,39.94,16.68,17.92,17.35,6.53,46.08,47.08,38.59,75.8,15.2,69.76,36.5,39.21,103.72,57.76,81.41,38.44,68.3,44.33,76.25,75.42,33.34,43.46,41.66,113.12,75.36,38.42,54.35,29.91,28.08,41.68,94.11,83.3,58.43,91.3,46.54,63.36,17.41,62.87,41.81,176.7,21.78,32.79,22.76,18.52,20.18,95.38,12.57,55.19,74.6,245.68,22.63,17.75,33.69,41.1,62.31,45.39,39.14,19.6,21.53,15.21,34.96,38.35,56.16,23.56,112.54,18.5,40.5,49.38,45.53,29.29,68.05,54.54,49.2,35.06,17.7,95.63,108.65,47.79,13.14,12.17,76.16,44.41,22.72,29.92,55.18,50.41,60.52,40.01,27.27,55.14,42.07,22.99,14.75,27.8,27.33,32.71,36.23,16.81,53.01,37.83,71.12,35.06,38.31,78.54,19.81,24.55,14.09,48.48,13.18,37.13,30.62,22.59,8.44,81.72,29.05,82.21,37.75,32.81,23.58,26.51,32.81,25.21,42.65,46.02,50.5,89.72,48.43,27.91,43.55,33.85,33.39,44.79,20.66,16.09,28.54,45.76,94.75,31.59,53.94,32.27,51.44,50.2,34.89,87.98,21.3,63.98,38.33,35.76,6.37,19.26,42.71,18.41,85.42,56.99,22.58,16.76,32.53,21.63,51.32,22.96,31.95,57.82,92.22,26.46,34.75,40.48,224.11,24.46,6.9,29.71,26.23,74.34,28.68,44.74,23.93,22.08,44.51,21.67,532.25,37.36,17.71,167.56,27.19,69.52,33.88,42.0,23.22,10.93,13.19,30.49,22.29,23.64,88.63,62.12,36.1,34.14,50.32,43.92,41.41,40.88,15.85,17.73,48.98,41.0,15.75,31.08,66.88,97.84,133.39,38.41,42.91,17.72,30.13,27.85,8.1,36.72,32.97,300.08,43.04,22.1,12.94,30.95,40.92,12.89,76.79,53.54,26.81,60.25,38.87,32.19,43.97,21.7,24.73,26.49,37.16,52.84,18.85,25.54,24.31,43.4,41.43,13.85,17.95,79.32,43.35,98.12,24.03,39.58,64.54,91.06,49.72,61.08,21.63,38.78,5.14,14.53,44.76,12.5,31.2,22.2,199.77,33.49,16.52,17.43,47.95,25.31,55.64,35.78,43.46,53.36,36.67,24.93,30.72,22.13,70.36,18.96,16.86,20.25,108.62,101.35,38.12,27.14,39.68,25.58,44.04,71.65,7.17,69.47,21.34,12.94,73.03,30.93,42.24,44.88,53.57,45.57,26.75,49.21,14.1,57.82,62.17,60.2,38.37,48.41,21.69,65.37,23.26,53.25,22.61,20.14,18.17,56.75,55.3,19.77,42.39,18.55,28.7,65.3,28.27,14.0,27.63,40.02,32.94,32.27,102.23,115.8,15.6,32.17,62.1,18.13,50.4,58.12,17.48,60.7,14.08,23.92,41.48,35.97,40.94,56.84,28.51,19.65,54.89,38.16,34.17,63.92,63.0,21.25,74.02,43.85,37.87,52.88,23.43,36.66,20.33,23.77,18.12,64.26,51.84,54.66,13.05,58.35,24.59,27.6,58.03,9.69,18.09,17.48,29.68,18.86,19.06,22.77,97.45,48.65,50.06,42.41,78.91,20.67,44.33,26.06,40.94,28.76,73.04,20.27,54.32,48.12,57.42,41.83,78.1,20.33,20.49,55.21,43.46,30.9,28.42,65.54,17.48,25.08,29.12,45.36,23.5,12.14,36.41,31.44,10.75,48.83,4.15,21.06,35.81,14.06,37.9,56.36,44.44,41.42,13.0,35.88,20.57,56.63,32.12,27.64,55.01,36.5,45.05,21.43,57.0,62.97,29.47,29.14,65.03,54.82,53.3,69.79,39.5,53.82,60.02,72.93,32.95,32.81,29.41,32.54,60.25,28.42,19.57,26.94,39.76,78.02,7.83,71.64,28.27,24.69,44.88,28.43,670.74,20.08,20.73,20.74,98.07,99.73,16.89,32.2,19.48,76.86,39.04,13.76,29.98,31.7,48.69,75.94,123.25
2008-02-15 16:00:00,30.5,32.95,124.1,20.66,47.89,52.03,31.76,34.67,24.18,40.23,34.54,38.15,33.47,34.55,19.29,49.43,55.17,63.05,757.41,22.97,56.95,33.77,39.59,16.49,16.5,17.21,6.45,45.95,47.71,38.69,72.96,15.1,69.16,34.93,40.05,103.08,57.24,81.56,37.91,69.49,44.89,76.22,74.67,33.45,43.11,41.13,113.62,75.32,38.84,53.47,29.25,27.99,40.64,93.06,82.72,58.86,90.83,47.31,63.31,17.57,62.2,42.16,174.17,21.73,32.65,22.62,18.6,19.44,95.9,12.81,53.79,75.72,243.2,22.34,18.33,33.86,41.36,61.88,46.03,38.59,19.42,21.78,15.35,35.36,37.69,55.71,23.52,115.05,18.5,40.65,49.2,48.14,29.79,67.26,55.3,48.95,35.08,18.57,94.92,105.25,47.58,13.17,12.18,71.58,44.47,22.76,29.65,54.88,50.47,60.44,40.14,28.94,53.84,42.49,22.77,14.75,27.59,28.03,32.56,35.87,17.38,54.21,37.74,71.77,35.12,37.71,77.32,19.57,24.5,13.54,49.3,12.94,37.23,30.79,22.75,8.39,81.95,28.51,81.56,37.52,32.87,23.58,26.67,33.1,25.49,42.47,45.3,50.99,89.27,48.72,27.79,43.57,33.76,33.24,44.82,20.63,15.9,28.5,45.59,93.21,31.98,53.7,31.85,51.43,51.3,34.26,87.91,21.4,64.4,39.44,36.62,6.36,18.93,43.12,18.32,85.33,57.36,22.51,17.31,32.91,22.39,51.79,23.4,31.06,57.59,90.93,26.66,34.77,40.46,219.39,24.18,6.87,29.67,25.97,74.43,28.67,44.62,24.62,21.54,46.32,22.24,529.64,37.54,17.96,169.31,26.86,69.21,33.88,42.4,23.55,11.2,12.87,30.96,22.81,23.65,88.09,63.77,37.98,34.06,49.03,44.58,40.94,41.46,15.66,18.41,48.28,41.32,15.76,31.39,67.74,97.87,132.36,38.51,42.65,17.42,30.04,27.91,8.17,36.48,31.81,303.27,42.99,22.38,13.04,30.89,41.6,12.86,75.82,53.63,26.12,59.53,39.45,32.27,44.72,21.9,26.43,26.57,36.62,53.07,18.78,25.63,24.86,43.21,41.48,13.75,17.41,79.76,42.88,96.34,23.56,40.24,63.96,89.92,50.28,61.08,21.43,38.25,5.0,14.76,45.1,12.51,30.89,23.38,203.49,33.88,16.4,17.18,47.71,24.91,55.95,36.09,44.38,53.65,35.87,24.93,31.37,22.33,70.06,20.05,16.83,20.08,108.0,101.3,38.63,27.34,39.4,25.51,43.16,73.29,7.13,69.82,21.18,12.96,71.93,30.7,41.47,45.15,54.39,44.93,26.6,48.81,14.07,57.81,62.3,59.32,39.0,48.03,21.4,65.29,23.46,53.12,22.27,20.02,18.39,57.67,54.77,19.74,42.55,18.55,28.35,65.29,27.85,14.29,27.59,39.53,33.09,32.62,123.86,115.77,16.11,32.14,62.24,18.04,50.82,57.83,17.7,60.43,13.41,23.94,42.02,36.18,40.94,57.56,28.53,19.75,54.59,38.76,34.11,64.82,63.38,22.43,73.63,43.43,39.1,52.85,23.54,36.97,20.43,23.55,18.12,64.49,51.76,53.7,13.05,56.76,24.26,27.4,57.46,9.57,18.22,17.59,30.42,19.03,18.85,22.74,98.75,48.75,49.98,44.54,79.08,20.98,44.41,25.37,40.94,28.74,72.97,20.19,53.15,47.96,57.39,41.78,79.96,20.5,20.58,54.94,43.24,30.28,29.05,65.05,17.54,25.39,29.15,45.53,23.72,12.2,36.43,31.33,10.72,48.89,4.19,21.14,35.24,14.12,38.53,56.94,44.26,41.93,12.95,35.26,20.44,60.27,32.63,27.56,54.58,36.33,46.14,21.8,57.03,63.04,28.58,29.36,64.03,54.82,52.61,68.69,39.7,53.46,59.66,73.1,33.46,34.07,29.26,32.49,60.37,28.89,19.53,27.03,38.1,77.07,8.07,72.97,27.94,24.51,44.41,27.94,670.49,20.34,21.04,20.87,95.53,99.94,16.91,32.7,19.24,76.7,38.38,13.68,29.66,32.07,49.62,75.41,123.22
2008-02-19 16:00:00,30.78,33.39,121.66,20.79,47.91,51.73,31.97,34.9,23.75,41.35,34.36,37.9,33.56,34.19,19.22,50.15,55.58,62.98,772.52,22.4,56.46,32.63,40.01,16.38,15.64,16.7,6.5,46.17,47.64,38.89,72.08,15.15,68.4,37.52,39.55,105.27,58.78,82.53,37.17,65.11,44.8,78.88,76.54,33.56,42.97,40.62,113.37,75.49,38.81,54.34,28.04,27.64,40.08,93.68,82.27,58.87,90.7,47.34,65.94,17.43,60.67,40.92,167.57,21.79,32.32,22.45,18.48,18.43,95.8,12.75,57.02,74.55,241.67,21.78,18.7,34.4,43.08,62.28,46.21,39.56,20.33,21.58,15.15,36.11,38.17,56.1,23.03,123.33,18.5,41.22,49.25,47.51,29.74,66.9,57.51,48.76,34.38,18.83,93.66,102.75,48.57,13.05,12.3,74.99,44.84,23.61,28.88,55.07,51.49,59.41,40.13,28.19,51.47,42.51,22.36,14.75,27.31,26.56,32.57,35.74,17.32,53.51,38.07,72.82,35.06,38.31,75.95,19.28,24.21,13.29,48.76,13.38,37.16,30.5,22.79,8.2,82.36,29.79,84.24,37.97,33.34,23.58,26.65,33.6,25.45,42.68,43.97,50.82,92.14,48.9,27.66,44.01,33.89,33.09,44.61,20.23,15.31,28.8,45.81,95.52,31.69,54.33,32.83,52.79,50.1,34.13,87.51,21.32,64.28,38.61,36.71,6.39,19.04,45.32,17.76,86.62,57.33,22.76,16.69,32.6,21.65,50.69,22.48,30.92,58.97,92.67,26.78,35.63,41.4,211.94,24.91,6.73,29.58,26.32,74.88,28.59,45.18,24.64,21.38,45.57,22.17,508.95,36.13,17.53,164.94,26.6,68.67,34.34,42.32,22.99,10.98,12.62,30.74,22.23,23.47,91.44,64.47,38.08,34.4,49.35,44.56,42.57,41.54,15.51,18.75,48.47,41.06,15.68,32.32,68.35,96.8,127.58,38.46,42.94,17.46,29.9,28.0,8.06,36.69,31.26,290.5,42.87,22.29,13.01,31.34,41.36,12.83,77.31,54.28,26.14,61.58,39.07,30.99,44.82,21.32,26.31,25.92,35.87,52.73,18.85,25.35,24.38,42.22,41.65,13.48,17.13,80.41,43.2,96.84,23.02,39.83,63.13,91.26,50.61,61.08,21.25,38.74,4.99,14.57,45.21,12.35,31.43,22.58,201.71,33.65,15.96,16.89,48.03,24.5,56.44,35.72,44.41,54.25,35.92,24.93,31.39,22.07,69.97,20.66,16.92,20.01,110.36,107.35,38.25,28.24,38.63,25.38,43.19,71.13,7.52,71.32,21.42,12.86,73.87,31.49,41.47,46.25,54.16,47.36,26.79,50.26,14.12,56.72,62.83,61.34,39.99,47.38,21.31,64.0,23.17,54.73,21.94,19.88,18.25,55.57,54.34,19.99,42.36,18.48,27.72,68.33,27.84,13.84,27.75,39.78,32.97,32.34,122.61,116.26,15.54,32.8,61.73,18.07,50.95,57.84,17.55,60.89,13.98,23.97,41.21,35.86,40.94,56.5,28.81,19.8,55.78,38.52,34.3,64.12,62.49,23.6,73.72,44.49,38.87,51.74,23.45,38.18,20.06,23.27,18.13,63.37,52.17,53.07,12.93,59.65,24.26,27.0,57.66,9.23,18.35,17.41,30.46,18.13,19.2,22.64,96.31,48.02,51.23,43.53,81.56,21.05,43.85,25.18,40.94,28.71,71.99,20.3,54.03,47.77,57.25,41.69,79.15,21.05,20.6,56.58,43.46,31.15,28.79,65.27,17.33,25.24,27.62,47.18,24.52,12.17,36.65,31.42,10.69,48.11,4.24,21.77,34.31,13.98,38.34,56.53,43.57,41.93,13.5,37.04,20.18,59.61,32.51,27.26,53.82,36.57,46.47,22.13,56.09,62.87,28.41,29.12,64.4,54.82,53.34,68.13,39.73,55.56,59.53,72.22,33.62,33.44,27.34,32.44,59.71,29.49,19.55,27.19,37.32,77.07,7.99,72.91,28.2,25.18,44.6,28.32,667.86,20.37,20.64,21.1,96.34,102.6,16.88,31.99,19.24,78.18,38.62,13.78,29.01,31.86,47.95,76.07,123.57
2008-02-20 16:00:00,31.38,33.97,123.29,20.65,47.94,52.37,31.34,35.05,24.0,41.33,34.97,38.39,33.37,33.87,19.05,50.68,56.37,61.99,786.81,22.71,57.06,33.21,40.4,16.62,14.74,17.57,6.83,46.65,48.43,39.22,73.64,15.5,70.7,40.24,40.46,108.51,60.06,84.28,37.14,69.18,45.93,79.26,77.49,33.22,43.0,41.3,117.08,74.28,39.08,54.44,29.15,28.35,40.58,93.83,82.41,59.13,91.49,47.44,66.48,17.7,61.24,41.76,169.77,21.99,32.78,22.72,18.4,18.98,95.5,12.61,57.74,75.82,243.3,22.08,18.66,34.52,43.87,63.03,46.99,40.1,20.64,21.66,14.92,36.62,38.36,54.87,23.31,123.74,18.5,42.34,49.62,47.89,30.03,67.88,57.42,48.24,34.97,18.54,93.93,102.65,49.18,13.04,12.36,74.95,46.03,24.36,28.62,54.29,52.1,61.04,40.24,27.9,53.13,42.97,22.67,15.29,27.8,26.45,33.04,36.51,17.37,54.52,38.49,74.12,34.8,38.51,78.03,19.75,23.97,13.87,50.25,14.46,37.43,30.87,22.62,8.59,83.02,31.13,87.69,38.64,33.16,23.58,27.61,33.6,25.55,42.94,46.48,50.42,95.38,49.5,27.24,44.68,33.81,33.52,44.38,19.96,15.43,28.88,45.94,97.57,33.04,56.25,32.83,53.79,49.1,34.1,87.72,21.62,64.16,39.68,36.36,6.32,19.77,45.96,18.42,87.29,57.06,23.34,17.38,33.44,22.06,51.83,22.67,30.22,59.59,95.92,27.06,36.01,41.08,217.0,25.72,6.54,29.77,26.01,75.08,28.66,45.6,24.68,22.01,44.49,22.48,509.0,36.05,17.82,168.21,26.76,69.02,34.71,42.39,24.1,11.19,12.91,31.3,22.94,23.82,91.75,63.8,38.23,34.43,49.3,45.39,43.75,44.83,15.63,18.61,48.49,41.21,15.45,32.36,68.32,99.42,134.31,38.83,43.13,17.66,30.12,28.15,8.16,36.48,31.68,291.43,43.34,22.74,13.03,30.75,42.75,12.63,77.84,53.92,26.05,63.72,39.36,31.99,44.34,21.08,26.39,26.39,37.89,52.93,19.76,25.4,24.33,44.54,41.83,13.6,17.97,80.27,43.02,97.39,23.69,39.89,64.7,91.03,50.97,61.08,21.41,39.98,5.07,14.93,46.38,12.65,31.96,22.96,205.69,34.06,16.27,17.27,48.49,25.15,56.84,36.36,44.64,54.45,36.8,24.93,31.73,22.22,70.49,21.34,16.92,20.02,111.47,111.75,38.21,28.37,40.55,25.43,43.84,72.52,7.81,71.99,21.47,12.93,75.75,31.38,39.1,47.17,54.46,47.99,27.47,51.65,14.21,56.79,63.14,62.84,39.71,47.31,21.44,65.62,23.04,56.53,21.78,20.12,18.16,56.31,54.22,20.24,42.02,18.88,27.99,69.32,28.29,14.01,27.67,41.24,33.02,33.06,127.51,116.69,15.34,33.13,61.71,18.15,50.97,57.72,17.75,61.34,14.61,24.13,41.03,36.49,40.94,57.08,28.72,19.68,54.9,38.38,34.02,64.94,64.97,23.22,75.44,44.97,40.18,53.66,23.3,39.7,20.7,23.64,18.08,65.35,52.08,54.5,13.47,63.17,24.47,27.25,57.55,8.71,18.49,17.56,30.71,18.28,19.47,22.53,98.48,48.17,52.09,44.33,80.94,21.57,44.73,25.49,40.94,28.73,73.37,21.01,54.65,47.67,58.07,42.25,80.9,20.96,20.75,58.04,44.11,31.83,29.0,64.14,17.88,25.4,26.44,46.85,24.95,12.21,36.8,31.26,10.98,49.2,4.26,22.69,34.63,14.66,38.55,56.87,44.76,42.19,14.14,38.24,20.66,59.84,32.22,27.72,53.49,36.4,46.49,22.43,56.65,63.23,29.38,29.38,64.49,54.82,53.43,69.19,40.05,56.27,61.55,73.74,33.32,33.76,27.26,32.98,61.05,30.64,19.48,27.91,36.67,77.35,7.94,72.89,28.25,25.78,44.64,28.21,672.36,20.27,20.97,21.32,97.89,107.8,16.87,32.23,19.53,79.15,39.04,13.91,28.83,31.79,49.28,76.5,123.94
2008-02-21 16:00:00,31.46,33.48,121.02,20.1,47.3,51.23,31.09,34.78,24.79,41.4,34.81,38.95,32.69,33.25,18.68,49.36,55.96,61.12,781.72,21.96,56.49,33.51,40.17,16.5,15.19,17.43,6.96,46.05,47.73,38.68,69.9,15.2,70.19,40.18,40.09,105.61,59.38,82.16,37.01,63.21,45.03,76.53,75.29,32.45,42.7,40.74,113.65,72.52,38.39,54.05,28.3,27.69,39.84,92.54,81.43,58.72,89.99,47.32,64.76,16.81,60.21,41.38,167.27,21.93,32.58,22.42,18.16,18.72,94.02,12.43,55.35,74.24,239.1,21.91,18.39,33.62,43.0,62.62,46.34,38.33,20.35,21.04,15.06,36.09,37.61,54.56,23.36,119.8,18.5,41.72,48.12,46.82,29.66,67.12,56.33,48.39,34.2,18.02,93.02,101.08,48.43,12.99,12.09,72.16,44.49,23.96,28.38,52.9,51.25,61.43,40.46,28.35,53.52,42.32,22.66,15.19,27.08,25.87,32.26,35.9,16.92,53.55,38.23,72.78,34.33,37.77,78.12,19.27,23.65,13.48,46.54,14.34,37.01,30.58,21.87,8.32,83.68,31.16,86.8,38.04,32.66,23.58,27.14,33.75,24.99,42.07,42.88,50.84,91.85,48.95,27.02,43.99,33.2,33.54,43.76,19.91,15.42,28.51,45.11,94.8,32.51,56.03,32.38,52.06,48.1,34.46,85.67,21.52,63.31,38.69,34.86,6.15,19.21,46.21,18.1,86.69,55.98,22.5,16.72,32.88,22.14,51.03,22.16,29.55,61.1,96.52,26.87,34.65,40.84,211.59,25.64,6.42,29.17,25.78,73.87,28.36,43.93,24.52,21.86,44.73,22.13,502.86,35.06,17.58,166.24,26.46,68.82,34.09,41.19,23.51,10.87,13.13,30.78,21.98,23.53,89.86,64.4,37.73,33.93,48.57,45.24,42.27,44.26,15.55,18.73,47.98,40.37,15.01,32.2,67.79,98.57,133.56,38.43,42.26,17.59,29.46,27.91,7.96,36.32,31.33,286.26,42.52,22.92,12.8,30.39,42.82,12.5,79.28,53.7,25.66,63.3,39.29,31.35,44.09,20.72,26.02,25.92,38.6,52.83,19.33,25.3,23.42,43.1,41.37,13.33,17.23,79.61,42.91,96.01,23.64,39.45,63.36,89.27,50.35,61.08,21.34,39.94,5.03,14.46,45.08,12.49,31.45,22.71,201.99,33.85,16.15,16.92,47.65,25.28,56.39,35.81,44.23,54.48,36.53,24.93,31.35,22.2,69.63,20.91,17.03,19.68,109.02,109.51,37.49,27.31,40.19,25.32,43.16,70.4,7.38,69.77,21.64,12.84,73.98,30.56,39.96,45.39,53.7,47.51,27.87,49.94,13.89,55.98,61.89,60.99,39.32,46.79,21.51,64.15,22.5,54.96,21.29,19.82,17.85,55.16,53.84,19.83,41.65,18.35,27.51,66.54,28.04,13.89,27.0,40.16,32.52,32.58,123.71,114.8,15.22,33.5,61.68,18.09,52.67,57.53,17.62,59.51,14.28,23.54,40.52,36.25,40.94,55.99,28.33,19.38,55.16,37.83,33.19,65.49,64.27,24.44,73.94,43.63,39.3,52.74,23.21,38.55,20.03,23.34,18.18,63.95,50.99,55.11,13.31,60.55,23.95,27.14,56.99,8.51,18.31,17.15,30.31,18.63,19.6,22.28,96.0,49.49,51.3,44.53,78.92,21.02,45.06,25.84,40.94,28.23,72.3,21.28,54.07,46.99,55.17,41.69,78.41,21.22,20.45,57.2,43.62,30.42,26.93,63.51,17.44,25.13,26.53,46.1,24.57,12.01,36.37,30.51,10.81,47.32,4.17,22.52,33.77,14.65,38.55,55.97,43.89,41.22,13.64,36.84,20.34,58.54,31.89,27.4,52.79,36.27,46.2,22.06,56.31,62.59,29.26,28.94,63.45,54.82,52.55,68.08,39.52,54.81,61.42,72.18,33.28,33.16,27.35,33.38,59.42,31.3,19.21,27.99,35.59,77.83,7.76,72.15,27.84,25.53,44.72,27.26,658.79,19.98,20.58,20.96,93.47,103.21,16.53,31.21,19.41,78.09,38.29,13.52,28.42,31.44,48.26,75.93,122.91
2008-02-22 16:00:00,31.26,33.71,118.95,20.4,47.02,52.58,31.28,35.09,24.41,40.64,35.38,38.6,33.14,33.91,18.87,48.74,56.07,61.63,802.91,22.57,57.21,32.79,40.84,16.46,15.19,17.79,6.71,45.75,47.88,39.54,72.08,15.46,71.08,41.71,40.63,106.6,60.42,83.06,36.97,62.85,45.56,77.31,77.62,32.43,43.13,41.08,115.31,73.43,38.75,53.71,28.95,28.62,40.27,92.69,82.3,59.18,91.03,48.57,65.29,17.07,60.34,42.02,165.09,22.04,32.38,22.5,17.98,18.73,92.96,12.31,56.32,76.97,239.76,21.92,18.67,34.12,43.34,62.97,46.76,38.15,21.01,21.25,15.19,37.0,38.51,54.26,22.97,122.63,18.5,41.98,47.95,47.04,29.81,68.03,57.33,49.76,35.13,18.54,94.58,99.72,49.8,12.95,12.21,72.89,44.71,24.1,28.67,54.46,51.77,62.42,40.48,28.27,52.34,42.76,23.06,15.16,27.61,25.99,32.15,34.57,17.5,52.8,38.16,73.33,34.79,38.1,79.29,19.54,24.18,14.37,44.82,14.25,37.0,30.86,22.96,8.51,83.65,30.99,88.14,38.07,32.98,23.58,27.41,33.04,25.87,42.8,43.72,51.01,93.49,49.74,27.71,44.16,33.55,33.82,44.41,20.18,15.28,28.66,45.19,96.43,33.21,55.82,33.15,52.12,47.9,34.84,86.27,21.51,64.42,38.94,34.95,6.17,19.45,45.98,18.57,86.47,56.58,22.28,17.94,33.41,22.12,51.95,22.58,29.16,62.86,97.36,27.21,34.81,41.08,211.74,25.88,6.52,29.07,25.84,74.63,28.24,42.92,24.84,22.08,45.0,22.43,507.8,35.24,17.97,168.65,26.93,68.88,34.18,41.74,23.63,11.21,13.37,31.62,22.59,23.86,91.02,65.43,38.12,34.73,49.47,46.15,42.68,44.8,15.45,18.64,47.98,40.52,15.31,32.39,67.83,99.63,134.5,38.53,44.53,17.17,26.75,27.81,8.15,36.53,31.0,291.57,42.59,22.86,12.95,30.46,43.51,12.91,81.07,54.23,26.19,63.57,40.07,32.03,44.12,21.55,26.47,26.45,38.23,53.57,19.41,25.42,23.81,43.55,41.56,13.66,17.12,79.29,42.33,97.62,24.51,40.0,64.79,89.37,50.68,61.08,21.67,40.31,5.04,14.79,45.59,12.73,32.23,22.68,201.0,33.6,16.51,17.06,48.05,25.09,57.22,35.63,43.86,55.26,36.02,24.93,31.72,22.47,70.25,21.91,17.07,19.86,109.24,106.77,37.44,27.71,41.14,24.94,43.46,72.04,7.54,71.03,21.94,12.94,75.26,30.9,40.4,46.3,54.3,46.96,27.8,50.35,13.96,56.23,61.65,62.0,39.62,47.36,22.1,63.14,22.89,56.41,22.32,20.1,18.06,56.63,54.69,20.02,42.36,18.36,27.82,66.98,27.32,13.95,27.17,40.28,32.63,32.96,127.25,115.33,14.83,34.41,61.94,18.17,52.21,57.75,17.95,59.74,14.53,23.54,40.98,36.75,40.94,57.03,28.67,19.5,55.49,38.46,33.29,66.52,65.91,24.74,74.64,44.25,40.28,52.71,23.59,39.09,20.59,23.51,18.24,63.45,51.18,57.83,13.47,61.8,24.21,27.28,57.81,8.91,18.75,17.55,30.52,18.75,19.43,22.24,96.54,49.44,52.25,44.76,80.37,21.31,45.05,25.65,40.94,28.53,74.16,21.61,54.42,47.02,56.37,41.95,77.83,21.49,20.05,56.99,43.76,30.86,27.02,63.63,17.48,25.45,26.92,47.25,24.93,12.15,36.77,30.84,10.93,47.97,4.25,22.5,34.14,15.27,38.96,55.89,44.5,41.96,13.85,37.56,21.12,61.27,32.22,27.59,54.15,36.22,45.77,22.39,56.72,62.58,29.66,29.56,64.65,54.82,52.97,67.98,40.27,54.89,61.55,73.6,33.92,34.12,28.0,34.27,60.07,31.23,19.53,28.63,35.8,77.64,7.86,71.86,28.24,25.56,44.88,27.58,659.7,20.41,20.88,20.75,95.07,104.16,16.63,31.18,19.26,78.32,38.22,13.63,28.42,31.7,48.52,75.54,123.66
2008-02-25 16:00:00,31.35,35.83,119.23,20.65,47.82,52.51,31.96,35.54,24.58,40.86,35.59,39.3,33.3,34.35,19.36,50.39,56.82,62.6,827.55,23.4,58.47,32.86,41.31,16.68,15.24,17.76,6.97,46.06,48.56,39.89,73.27,15.44,73.17,42.27,40.87,110.41,62.36,85.39,37.84,62.12,45.84,79.35,80.86,33.31,44.22,41.22,117.37,74.86,39.06,54.06,29.41,28.76,41.11,95.54,83.88,60.85,93.15,49.77,66.59,17.3,61.3,42.45,172.16,22.4,32.65,22.79,18.51,18.8,93.12,13.05,57.74,79.07,236.14,22.31,18.99,34.38,43.76,63.91,47.68,38.51,21.93,21.46,15.45,37.03,38.76,56.49,23.38,127.63,18.5,43.65,48.46,47.1,30.21,68.87,59.32,49.75,35.17,18.69,95.64,102.97,49.49,12.85,12.25,77.53,45.29,24.94,29.56,54.98,52.83,62.06,41.03,28.52,54.41,43.24,23.26,15.65,27.82,26.44,32.1,34.3,17.18,53.76,38.25,74.84,35.07,38.87,80.95,20.14,23.42,14.75,46.03,14.51,37.52,31.16,23.34,8.57,82.81,31.75,88.22,38.7,33.19,23.58,28.12,33.12,26.16,43.22,43.19,50.94,96.82,47.14,28.01,45.05,33.61,34.0,44.59,20.44,15.61,29.15,45.51,101.07,34.15,56.65,32.74,53.76,49.2,35.95,86.19,22.25,64.09,39.32,34.36,6.37,19.91,46.53,18.82,87.08,57.24,23.01,18.06,34.13,22.53,53.08,22.78,30.37,65.13,99.39,28.14,34.06,41.73,218.9,26.03,6.84,29.7,26.08,74.88,28.79,43.62,25.13,22.57,44.8,23.0,486.44,35.5,18.19,168.32,27.72,69.95,35.06,42.88,24.05,11.55,13.46,32.45,22.84,24.76,94.84,65.46,38.7,35.54,50.91,46.08,45.48,45.49,15.57,19.24,48.75,40.57,15.66,33.33,68.11,101.48,139.56,38.98,45.27,17.27,27.06,28.5,8.35,37.48,31.05,293.58,43.11,23.31,13.23,31.58,43.88,13.43,84.78,54.81,27.59,64.58,40.16,32.9,44.29,21.83,26.6,27.45,38.74,53.95,20.31,25.64,23.87,44.3,42.21,13.54,17.59,79.16,42.74,99.94,24.54,40.62,64.81,90.66,51.07,61.08,22.5,40.82,5.25,15.18,46.07,12.83,32.79,22.81,196.03,33.88,16.79,17.45,48.36,25.75,58.41,36.2,44.88,55.22,36.82,24.93,31.93,22.72,71.43,21.89,17.23,20.22,114.16,114.71,38.03,28.19,42.16,25.09,42.7,72.43,7.77,73.07,22.54,13.05,77.36,31.3,40.59,47.21,54.45,46.61,28.0,53.2,14.1,57.16,62.39,63.19,40.51,48.26,22.88,64.95,22.42,57.21,22.31,20.95,18.46,56.97,56.94,20.54,42.74,18.43,28.26,69.22,27.55,14.17,27.6,41.78,32.58,34.33,123.51,115.33,14.99,35.16,62.12,18.4,53.59,58.16,18.35,60.62,14.57,23.56,42.41,37.54,40.94,57.27,28.79,19.56,56.89,38.32,34.6,67.67,68.59,25.23,76.03,45.52,40.51,54.77,23.8,40.1,20.59,23.93,18.31,64.24,51.93,56.96,13.78,63.76,24.5,27.95,57.96,8.95,18.74,17.79,30.49,19.22,19.72,22.76,99.08,50.04,53.63,45.89,82.34,21.05,46.09,26.31,40.94,28.75,76.99,21.78,55.45,47.38,56.89,42.55,79.26,21.57,20.81,58.17,44.39,33.81,27.19,64.56,17.86,25.39,27.32,47.22,25.12,12.25,36.98,30.97,11.24,49.06,4.28,23.67,37.01,15.44,39.2,57.65,45.81,42.95,13.84,37.74,21.22,61.41,32.38,27.79,55.25,36.98,46.37,22.35,57.88,63.09,29.6,29.7,65.71,54.82,53.98,68.07,41.36,55.94,62.99,75.86,33.63,34.51,28.25,34.23,60.58,33.18,19.53,28.85,35.43,77.8,8.21,72.49,28.55,26.23,45.2,28.19,658.61,20.8,21.54,21.01,96.44,108.53,16.82,32.28,19.84,80.08,38.67,13.79,28.13,33.05,49.15,77.47,125.22
2008-02-26 16:00:00,31.71,35.51,118.64,20.55,47.91,53.08,33.42,35.87,24.66,41.86,35.43,39.1,33.48,34.37,19.43,50.81,57.06,62.6,844.63,23.2,58.99,33.43,41.86,17.03,15.71,17.94,7.13,47.12,49.45,40.83,71.69,16.11,74.49,41.5,40.35,111.38,63.27,85.0,37.86,65.5,46.26,78.57,80.34,33.63,44.73,41.77,124.93,74.78,38.86,54.33,30.44,28.87,42.35,94.76,83.98,61.57,94.45,49.17,67.31,17.17,61.53,42.47,176.01,22.22,32.99,22.83,18.65,19.21,92.52,13.21,57.14,79.6,238.14,22.16,19.21,34.47,44.69,64.84,48.07,39.36,21.76,21.27,15.74,37.91,39.11,56.63,22.41,125.07,18.5,43.69,48.91,47.42,30.43,68.74,58.78,51.4,34.93,18.56,95.33,104.28,49.77,12.87,12.21,77.54,46.6,25.34,31.02,55.14,54.33,62.84,40.65,28.77,52.76,43.54,23.52,15.94,28.22,27.12,32.7,33.62,17.16,54.05,38.09,75.65,35.18,39.21,79.56,20.48,22.82,15.41,46.65,15.38,37.98,31.16,23.28,8.8,83.57,32.55,92.0,38.57,33.19,23.58,29.01,33.32,26.29,43.24,45.86,51.11,98.33,47.93,27.51,45.18,33.78,34.37,45.27,20.67,16.03,28.99,46.59,105.05,33.48,57.19,31.92,56.1,49.1,36.3,87.84,22.23,65.06,39.58,34.86,6.43,20.23,46.42,19.68,88.29,57.23,23.47,17.99,34.37,22.61,53.94,22.91,30.17,64.15,97.8,28.61,34.68,42.12,220.69,27.33,6.69,29.72,26.3,74.46,28.57,44.06,25.24,22.61,45.82,23.45,464.19,35.41,18.48,163.89,28.26,70.79,35.5,42.69,24.49,11.61,13.4,32.64,22.7,24.77,95.76,65.88,38.38,35.77,52.01,46.3,45.4,46.5,16.02,18.85,48.18,40.17,15.73,33.05,69.31,105.44,135.51,39.17,44.84,17.92,27.42,28.34,8.44,38.3,31.84,296.23,43.34,24.08,13.32,32.18,44.98,13.65,83.21,54.69,27.51,64.49,39.88,34.21,44.69,21.8,26.9,27.6,39.98,54.32,20.81,25.97,24.0,45.68,42.88,13.84,19.12,79.4,43.65,101.0,24.71,41.53,65.03,90.08,51.47,61.08,22.95,41.89,5.33,15.26,45.58,12.82,32.54,24.43,193.5,34.77,16.71,17.32,48.71,26.22,58.04,39.36,45.17,55.73,38.5,24.93,31.75,22.77,71.68,22.0,17.23,20.28,113.07,113.31,37.7,28.73,41.83,25.57,42.12,72.57,7.72,74.44,22.61,13.27,77.29,32.03,41.1,48.03,54.53,47.33,29.0,54.42,14.21,58.1,61.99,63.97,41.17,49.27,23.13,64.33,22.19,58.18,22.5,21.2,18.36,57.2,57.64,20.42,42.74,18.66,28.82,71.07,27.16,14.24,27.98,42.54,33.05,34.66,126.53,115.16,15.2,35.38,61.89,18.44,53.78,59.03,18.57,60.83,15.3,23.54,43.38,37.92,40.94,57.39,28.98,19.78,56.68,38.43,34.21,68.31,68.94,25.82,75.93,46.14,40.43,53.03,24.11,41.24,20.66,25.18,18.28,66.03,52.12,57.59,14.01,64.21,24.99,27.93,58.23,9.29,18.72,18.33,30.83,19.19,19.83,22.74,101.36,49.73,53.35,45.93,83.8,20.72,46.87,24.9,40.94,29.06,76.3,21.68,56.48,48.16,57.11,43.15,78.9,21.43,20.4,59.99,45.0,34.06,27.51,64.36,17.57,25.49,27.37,47.34,26.03,12.32,37.26,30.97,12.22,50.57,4.9,23.73,37.28,15.66,39.57,57.7,47.35,43.82,13.61,39.74,21.46,61.72,32.36,28.49,55.56,37.42,47.29,22.34,59.0,63.13,30.98,29.87,65.6,54.82,53.69,69.35,41.45,57.11,64.49,75.18,34.69,34.49,28.47,34.58,60.97,33.99,19.56,28.59,36.07,80.1,8.2,72.38,28.71,26.52,46.17,28.71,658.79,20.55,21.54,21.4,97.86,109.74,16.89,33.08,20.23,80.76,38.75,13.84,28.22,33.45,49.59,76.78,126.16
2008-02-27 16:00:00,31.87,35.99,122.43,20.33,47.02,54.26,34.05,35.46,24.58,41.23,35.47,32.99,33.01,33.91,18.89,50.47,57.4,61.53,858.26,22.84,60.0,33.5,42.46,17.39,15.82,18.17,7.28,45.91,49.89,40.11,70.87,15.48,75.36,41.33,40.91,110.33,62.05,85.14,37.5,66.66,46.64,77.19,79.43,33.61,44.66,42.01,122.25,74.23,39.0,53.9,30.52,28.53,42.42,92.1,83.7,61.66,95.99,49.04,66.25,17.7,60.13,42.54,179.08,22.21,33.04,22.63,18.52,19.79,93.68,13.0,55.49,78.89,245.49,22.15,18.88,34.28,43.65,65.66,48.15,39.64,21.96,20.59,15.77,37.42,38.97,56.98,22.26,121.68,18.5,42.83,49.22,47.39,30.81,69.19,58.36,51.27,34.87,18.64,94.87,103.24,49.3,12.57,12.13,75.4,46.5,24.4,31.03,54.5,54.03,60.98,40.46,28.4,52.62,44.04,24.38,15.55,27.72,26.2,32.77,34.41,16.86,53.23,38.46,75.73,34.82,39.47,78.45,20.77,22.94,15.32,46.21,16.01,37.21,31.36,23.55,9.71,83.43,31.96,90.09,38.53,33.33,23.58,28.08,32.65,26.49,42.87,47.45,50.13,96.41,47.36,27.6,45.38,33.36,34.54,44.14,20.54,16.06,29.2,46.52,102.58,33.17,57.29,32.46,55.63,49.1,36.19,85.5,22.13,63.79,39.78,34.67,6.51,20.13,47.95,19.37,88.16,56.01,24.49,17.81,34.41,22.69,54.21,22.78,29.82,62.97,96.92,28.52,34.19,42.52,217.69,27.75,6.7,29.49,25.85,74.38,28.63,43.79,25.03,22.49,46.11,23.75,472.86,35.78,18.11,171.58,29.31,70.85,35.49,42.31,23.82,11.58,13.65,32.33,22.52,24.84,92.8,66.83,38.12,36.07,52.43,46.26,44.54,46.25,16.32,19.02,48.99,39.9,15.71,32.78,70.8,107.36,134.66,40.12,43.48,17.99,27.31,28.51,8.32,39.41,32.13,294.92,43.56,24.2,13.42,31.6,44.23,13.77,83.04,54.11,29.29,63.68,40.51,34.46,44.69,22.03,27.03,27.56,39.92,54.54,20.02,26.2,23.55,45.33,42.42,13.92,19.86,78.88,43.4,100.21,25.34,41.04,65.51,89.58,51.75,61.08,23.41,42.91,5.4,15.11,46.59,12.62,32.32,24.46,188.86,34.63,17.04,17.05,47.74,26.63,58.02,38.22,45.47,56.6,38.29,24.93,31.62,22.89,70.97,21.95,17.28,20.33,111.68,110.9,36.93,29.23,42.72,25.47,41.63,72.82,7.86,74.99,22.44,13.15,77.46,31.68,41.58,47.19,54.47,48.21,32.43,53.42,14.0,57.89,63.0,62.1,40.55,49.06,23.63,64.11,21.97,58.33,22.85,21.39,18.51,56.95,58.31,20.19,41.92,18.64,28.65,71.65,27.08,14.13,27.8,42.12,32.68,34.73,123.25,115.41,15.0,35.17,61.78,18.37,53.95,58.62,18.43,61.81,15.71,23.57,43.19,37.92,40.94,57.6,28.85,19.65,56.18,37.71,33.92,70.13,68.92,25.23,76.24,44.63,40.7,54.33,23.76,40.58,20.69,25.45,18.34,66.5,51.87,57.67,13.88,60.96,24.9,28.04,58.14,8.95,18.71,18.31,30.35,19.35,19.59,22.65,101.6,50.08,54.01,45.95,83.0,20.86,46.2,25.22,40.94,28.67,75.77,21.82,56.59,47.45,57.62,42.19,79.2,21.32,20.21,58.78,44.76,32.81,26.88,63.17,17.5,25.23,27.09,47.83,26.49,12.15,36.44,30.76,12.5,50.51,5.0,23.43,36.82,15.45,39.88,57.4,48.76,43.14,14.12,38.76,21.82,62.82,32.42,28.74,54.64,37.33,47.52,22.52,58.38,62.94,30.78,30.08,65.28,54.82,53.35,68.98,40.94,55.69,64.38,73.35,34.16,34.09,28.15,34.27,60.87,33.97,19.16,28.9,35.34,82.17,8.03,71.68,28.4,26.01,46.19,28.15,656.4,20.59,21.3,21.14,95.45,107.72,16.6,34.34,20.63,80.31,38.96,14.2,28.37,32.95,50.7,76.69,126.03
2008-02-28 16:00:00,31.5,36.08,129.35,20.04,46.74,52.3,33.82,35.34,24.2,42.36,35.02,33.11,32.89,33.69,18.77,49.97,56.61,60.11,823.77,22.22,58.88,33.48,41.65,16.97,15.85,17.92,7.02,44.86,49.35,40.32,67.85,15.09,72.86,43.05,40.39,116.01,63.61,83.51,37.53,64.19,46.54,78.19,77.17,33.49,44.27,40.5,119.73,74.99,37.67,54.0,29.39,27.56,40.82,92.98,83.92,61.13,92.81,48.35,66.61,17.81,60.58,42.08,175.43,22.06,32.09,22.18,18.28,18.95,93.2,12.72,57.19,77.29,238.71,21.75,18.84,34.08,44.98,65.81,46.52,39.21,21.53,20.56,15.63,37.07,37.36,57.49,22.24,122.98,18.5,43.68,48.4,46.11,29.84,68.95,59.7,50.48,33.31,18.51,93.18,102.04,49.22,12.53,12.16,76.32,45.18,25.24,29.98,54.15,54.71,59.66,40.0,28.45,61.66,42.24,24.1,15.29,27.82,26.53,32.36,33.9,17.49,52.61,38.89,76.42,34.46,39.16,79.11,20.87,22.76,15.0,46.13,14.53,36.94,30.83,23.29,9.44,82.95,32.67,90.81,37.82,32.93,23.58,27.2,32.81,26.04,42.11,46.12,50.37,101.57,47.23,27.27,45.16,32.96,33.92,43.58,20.35,15.73,29.12,46.14,121.07,32.16,58.08,31.52,56.58,47.0,36.15,86.16,22.05,63.38,38.69,33.57,6.53,19.6,49.31,18.59,86.57,56.21,23.68,17.12,33.49,22.5,52.87,21.97,28.17,67.94,105.34,28.64,32.99,40.72,205.26,28.42,6.65,29.19,24.61,74.05,28.49,45.46,24.81,22.3,43.82,22.92,475.39,35.6,17.73,167.69,28.36,69.75,37.01,41.59,23.54,11.02,13.49,31.63,22.49,23.81,93.26,64.35,37.76,35.57,52.03,44.36,45.92,45.88,16.22,19.11,48.38,42.92,15.18,32.56,70.18,106.24,133.95,39.88,42.92,17.75,27.44,27.97,8.07,39.94,28.75,289.91,43.95,24.03,12.38,31.14,42.55,13.31,83.7,53.83,28.59,64.64,38.71,33.96,44.52,21.16,26.69,27.06,38.75,54.17,19.12,25.94,23.29,43.73,41.64,13.51,18.21,78.84,42.75,100.87,24.88,40.33,63.66,89.76,50.29,61.08,22.67,42.38,5.27,13.44,45.73,12.42,32.87,23.52,192.33,33.33,16.77,16.69,47.45,25.76,57.35,37.68,44.96,55.51,37.04,24.93,31.35,22.73,70.37,22.08,17.12,20.04,110.97,110.81,36.73,29.11,41.34,25.17,39.79,70.4,7.57,76.73,22.13,12.03,77.71,32.47,42.87,48.63,53.45,49.57,31.54,56.7,13.85,57.57,62.62,63.02,41.22,48.6,22.58,62.73,22.09,58.28,21.99,21.2,18.19,56.1,56.4,20.27,41.44,18.86,28.11,73.2,26.6,14.11,27.09,41.69,32.38,33.98,123.31,114.87,15.9,35.23,61.66,18.21,51.55,58.41,18.01,61.38,14.66,23.39,42.56,37.82,40.94,56.87,28.65,19.43,55.06,37.4,33.57,68.03,70.04,25.05,74.89,46.09,40.27,53.15,23.51,41.41,19.55,24.96,17.89,64.17,50.62,56.97,13.49,63.06,24.46,27.59,58.02,8.09,18.54,17.86,30.38,18.9,19.64,21.87,101.4,48.49,52.68,45.94,84.36,20.5,45.97,24.32,40.94,28.26,74.08,21.28,55.88,47.37,55.33,42.2,77.86,20.2,19.93,56.41,43.54,33.83,26.72,62.89,17.29,24.66,27.67,48.59,26.05,12.11,36.26,29.91,12.26,49.58,4.99,23.46,35.79,15.34,39.25,56.75,47.42,42.13,14.17,36.44,21.23,62.55,31.42,28.37,53.29,37.13,46.4,21.83,57.7,62.45,29.53,29.48,64.6,54.82,52.47,68.23,40.36,53.37,64.71,71.14,33.27,33.72,28.76,34.02,60.62,32.36,19.16,27.82,35.55,79.09,8.11,70.61,28.2,26.32,45.54,27.91,667.68,20.27,20.85,20.65,94.32,110.4,16.51,32.53,20.14,80.3,39.14,13.83,28.15,32.1,48.23,76.79,124.8
2008-02-29 16:00:00,30.46,34.26,124.49,19.76,46.17,50.62,32.4,33.65,23.31,41.11,34.72,31.09,32.42,32.8,17.98,48.22,55.37,58.45,769.73,21.6,57.19,35.16,40.92,16.42,15.15,17.33,7.21,44.85,46.23,38.19,64.47,14.57,71.28,40.54,39.22,111.45,61.9,81.19,36.54,61.38,45.26,71.5,74.94,32.56,43.46,38.57,115.08,73.21,36.15,53.18,28.34,26.21,39.17,91.44,82.77,59.2,88.44,46.67,63.69,16.85,58.36,39.98,171.92,21.28,32.28,21.41,18.05,18.38,93.49,12.59,54.75,75.32,226.31,21.52,18.65,33.2,42.48,63.98,45.07,37.28,20.06,19.79,15.33,36.09,36.21,56.41,21.73,118.95,18.5,42.7,46.4,44.27,29.06,67.95,56.19,50.06,32.43,17.98,92.46,99.3,46.95,12.07,11.69,72.44,42.95,24.55,28.94,53.94,53.11,58.55,39.72,27.94,59.72,41.11,23.83,14.71,26.67,25.64,30.21,32.93,16.8,51.48,38.37,74.39,33.18,38.48,77.51,19.9,21.3,14.36,45.92,13.13,36.76,30.71,22.57,8.94,80.4,31.89,89.21,37.22,32.07,23.58,26.93,31.55,25.05,41.2,42.96,49.63,98.39,47.29,26.36,44.01,32.56,32.57,42.71,20.22,15.54,28.48,44.45,115.5,31.63,56.43,29.55,55.29,42.7,34.87,84.81,21.81,61.29,37.5,32.81,6.44,18.87,46.67,17.74,85.54,54.32,22.16,15.22,32.21,22.1,52.62,20.92,27.96,66.4,102.97,27.29,32.18,39.77,205.15,26.89,6.39,28.28,24.55,73.02,27.89,47.32,24.44,21.73,41.2,22.49,471.18,34.37,18.38,160.98,27.1,67.86,36.29,40.63,22.67,10.77,13.05,31.43,22.46,22.81,90.55,61.93,37.13,33.59,50.59,43.91,43.75,45.15,15.66,18.63,43.93,42.56,15.09,32.6,67.3,104.96,130.3,38.76,41.66,17.3,26.27,27.21,8.27,38.84,28.28,281.92,43.18,22.78,11.7,29.57,41.2,13.15,80.29,53.18,26.82,62.04,37.08,33.08,44.11,20.16,26.3,26.35,37.75,53.69,18.36,25.5,22.44,42.96,40.49,13.06,17.43,77.31,42.24,97.16,24.03,39.61,61.15,88.09,48.04,61.08,22.02,40.24,5.04,12.93,44.36,12.13,31.74,22.73,187.69,32.52,16.01,15.96,47.01,24.91,56.19,35.33,44.6,53.66,36.06,24.93,30.69,21.99,69.13,20.75,16.97,19.56,108.31,109.07,36.0,28.58,39.22,24.51,38.14,68.6,7.52,74.04,21.26,11.84,73.94,31.53,41.51,46.47,51.05,48.01,31.58,55.38,13.37,55.87,61.56,59.57,41.08,47.1,21.62,60.77,21.58,55.32,21.39,20.18,17.45,54.69,56.45,19.57,40.8,18.27,26.96,70.44,26.03,13.89,26.47,40.17,31.27,33.2,114.02,109.81,15.95,33.91,60.36,17.99,49.43,57.73,17.44,59.49,13.37,23.39,41.7,36.54,40.94,55.63,27.68,18.92,53.42,36.38,32.66,66.05,69.67,23.88,72.67,44.27,39.4,51.65,23.33,39.89,18.89,24.51,17.83,60.84,48.55,54.84,13.25,60.28,23.75,26.83,56.75,7.11,18.68,17.29,29.87,18.34,18.84,21.35,95.62,47.19,52.24,45.37,81.31,18.72,44.14,23.55,40.94,27.73,72.36,20.39,53.89,45.88,53.41,41.65,74.85,19.5,19.21,54.74,42.48,32.62,26.1,62.0,16.84,23.84,26.8,48.33,25.23,11.84,35.06,29.38,11.99,48.47,4.81,19.49,34.43,15.05,38.04,55.65,45.43,40.65,13.73,35.4,20.55,61.23,30.62,27.4,51.66,36.22,44.92,21.29,57.01,61.14,28.78,28.77,63.11,54.82,52.45,65.94,38.84,52.91,63.21,70.32,32.16,33.22,28.1,33.44,59.61,30.87,19.0,26.61,34.23,73.83,7.84,68.12,27.37,25.89,44.54,27.81,656.97,19.8,20.16,20.21,91.95,104.11,16.17,30.5,19.95,78.18,38.06,13.47,27.78,31.34,45.74,74.86,122.02
2008-03-03 16:00:00,30.59,35.35,121.21,19.65,45.89,49.59,32.06,32.86,23.3,41.69,34.96,30.35,32.19,33.02,18.44,48.14,55.05,57.89,766.93,21.81,57.26,33.65,41.02,16.41,14.99,17.07,6.76,44.84,46.1,37.81,62.43,14.62,71.31,43.14,38.91,113.12,62.35,82.3,36.14,56.95,44.51,70.72,75.38,33.11,43.68,38.37,117.72,71.33,35.64,53.16,28.81,25.76,39.41,92.46,82.56,59.53,88.19,47.9,63.75,17.2,58.84,40.26,170.91,21.68,32.43,21.38,17.87,18.12,90.18,12.65,55.11,76.09,220.39,21.22,18.71,33.19,42.2,64.75,44.75,37.61,20.04,19.88,15.4,35.85,36.32,56.3,22.07,117.39,18.5,43.52,46.98,44.43,28.89,68.62,57.34,50.09,32.1,18.4,93.13,97.63,47.54,11.98,11.55,72.74,41.96,24.92,29.36,53.2,53.58,59.11,39.88,27.72,58.77,40.9,23.84,14.82,26.86,25.38,30.02,32.61,15.99,51.91,38.09,74.86,33.41,38.69,79.66,19.94,21.49,14.26,45.77,12.72,36.82,30.71,23.0,9.29,79.09,31.99,89.3,37.7,32.29,23.58,27.21,31.85,25.48,41.55,43.49,48.47,99.59,47.72,25.85,44.19,32.63,32.76,43.19,20.62,15.53,28.71,45.38,118.58,32.43,56.7,30.99,54.72,43.4,35.51,87.05,21.74,63.5,38.87,31.91,6.1,18.89,47.87,18.18,86.6,54.14,20.97,15.7,32.01,21.84,52.45,20.93,28.56,65.53,104.42,27.7,32.0,40.16,207.49,27.02,6.5,28.57,24.41,72.93,28.11,48.57,24.68,21.66,41.57,22.16,457.02,34.56,18.67,156.66,27.9,68.66,36.54,41.38,22.82,10.96,13.15,31.7,22.63,23.28,91.1,61.1,36.93,33.78,51.48,44.04,44.62,44.99,15.39,18.81,43.44,42.9,15.7,32.57,67.32,105.3,132.93,38.83,43.32,17.33,26.59,27.3,7.94,39.58,27.52,283.71,43.15,21.8,11.4,30.08,41.91,12.99,81.3,53.42,25.87,62.27,36.32,33.26,44.1,19.77,26.32,26.45,37.41,53.99,18.88,25.75,22.97,43.8,40.06,13.28,15.67,76.9,41.81,98.02,23.97,39.74,60.16,88.77,47.25,61.08,22.35,39.97,5.02,12.99,44.64,12.1,31.27,22.78,186.26,32.62,16.22,16.02,46.18,25.4,56.23,34.88,44.66,53.28,35.87,24.93,31.22,21.78,69.21,20.27,16.94,19.7,111.08,109.68,35.81,28.93,38.71,24.32,37.53,66.99,7.17,76.28,21.42,11.45,77.25,30.86,40.27,46.41,51.94,49.14,30.94,55.95,13.62,55.76,64.66,59.32,41.44,47.71,22.52,61.52,21.62,56.59,21.14,20.64,17.51,54.11,54.98,19.88,40.92,18.41,27.26,71.23,25.89,13.63,26.53,40.33,31.48,32.96,113.69,108.61,15.44,34.0,60.89,17.97,48.85,57.87,17.05,59.59,12.44,23.16,41.79,36.04,40.94,54.4,27.88,18.78,54.02,36.84,32.34,65.05,70.76,24.14,73.27,44.76,38.22,52.33,23.2,40.17,18.35,24.27,17.37,60.9,48.42,55.63,13.42,61.89,23.37,26.91,57.33,6.98,18.81,17.17,29.9,18.05,19.15,21.84,96.47,47.74,53.6,46.32,81.81,18.88,44.08,23.05,40.94,27.83,73.33,20.61,54.62,45.56,52.55,41.66,74.03,19.72,18.99,55.25,42.87,33.92,25.83,62.18,16.85,24.0,26.98,47.3,25.98,11.95,34.92,29.43,12.0,48.74,4.84,19.53,35.39,15.36,38.04,55.14,44.93,40.73,14.26,35.63,20.71,61.7,30.4,27.37,52.55,36.82,44.8,21.19,56.6,61.46,29.15,28.7,62.12,54.82,52.12,65.86,39.15,53.02,64.24,70.79,32.22,33.74,28.07,33.39,60.17,31.21,19.18,26.29,34.22,76.88,8.0,68.82,27.6,26.18,44.81,27.5,640.87,20.1,20.54,19.85,90.37,103.42,16.25,29.71,19.73,78.84,38.4,13.49,27.77,31.49,44.17,75.13,121.73
2008-03-04 16:00:00,30.36,35.05,124.09,19.54,45.9,48.8,31.87,33.07,23.66,41.93,35.01,29.9,32.69,33.84,18.5,47.78,55.6,56.62,752.81,21.72,56.74,33.82,41.11,16.8,15.05,18.37,6.76,44.97,46.12,37.4,65.34,14.9,72.31,40.3,39.12,111.44,62.31,80.48,36.2,57.32,43.04,68.14,75.38,32.75,42.51,38.89,116.78,70.41,35.27,53.65,29.14,25.85,38.8,91.23,82.86,59.17,88.06,47.48,63.23,17.38,59.14,40.38,176.99,21.07,32.65,21.34,17.67,18.55,91.5,12.75,53.21,76.85,210.94,21.17,18.77,32.79,41.42,63.46,44.61,36.35,19.45,19.66,15.59,35.28,36.86,57.32,21.58,116.55,18.5,43.68,47.2,43.87,29.01,68.7,56.06,49.64,32.95,18.38,90.6,96.52,45.58,11.96,11.61,70.94,42.38,24.71,28.68,52.8,52.34,58.99,40.06,27.73,57.88,41.33,23.74,14.99,27.1,25.03,30.48,33.12,15.5,51.01,38.88,74.45,33.44,38.49,78.86,19.67,21.21,14.02,45.96,12.87,36.92,30.2,22.17,9.29,78.3,32.34,87.36,37.09,32.07,23.58,27.2,32.26,26.13,41.57,42.42,48.85,97.73,47.05,26.25,43.14,32.76,32.5,43.81,20.56,15.36,28.1,44.56,116.38,32.15,57.13,30.96,56.33,39.9,35.49,89.55,21.5,65.05,39.13,30.9,6.05,18.79,45.78,18.26,87.65,55.8,20.47,15.9,32.1,21.73,53.26,20.92,25.89,65.19,100.64,27.56,32.06,39.52,202.6,26.69,6.52,28.98,23.95,73.7,28.21,49.32,24.41,21.62,42.4,22.2,444.6,34.51,18.54,155.26,27.42,68.36,36.2,42.01,23.01,10.69,13.13,31.64,22.48,23.09,90.35,61.7,36.86,33.35,51.45,47.26,43.3,45.79,14.97,18.97,42.82,43.8,15.51,32.48,66.93,106.67,135.37,37.9,43.38,17.33,26.79,27.34,7.99,39.05,26.62,280.08,42.67,21.61,11.43,29.58,42.1,12.83,80.15,53.77,26.29,60.98,35.75,33.97,43.85,19.55,26.16,26.73,37.43,53.53,18.53,25.9,23.14,43.48,40.16,12.98,16.08,78.89,42.1,96.94,24.19,39.6,60.15,88.53,47.31,61.08,22.11,39.92,5.18,13.01,43.35,12.51,31.67,23.21,190.13,33.8,16.33,16.31,46.59,25.87,55.46,34.85,44.7,53.01,35.64,24.93,31.11,22.0,69.14,20.45,17.13,19.6,104.61,106.73,35.56,28.42,38.5,24.86,37.99,66.36,6.98,75.32,21.18,11.18,75.77,30.55,39.58,45.98,52.62,47.1,31.52,54.8,13.88,56.08,62.84,59.08,42.2,47.69,22.52,61.87,21.57,57.13,20.93,20.1,17.64,52.54,54.37,19.87,41.23,17.92,27.63,69.04,26.41,13.66,26.31,40.35,32.0,32.81,115.33,105.44,15.6,34.19,60.77,17.96,48.49,57.61,16.9,59.26,12.72,23.33,40.8,35.64,40.94,54.88,27.95,18.95,52.82,37.55,32.73,64.76,69.59,23.28,72.26,44.64,38.31,53.06,23.14,39.86,18.54,24.15,17.43,61.16,47.64,54.72,13.69,59.26,22.62,26.88,56.61,6.88,18.97,17.21,30.2,18.29,18.9,21.53,95.94,46.61,52.86,45.54,79.52,18.43,43.66,22.89,40.94,28.09,73.96,20.36,54.92,45.39,51.82,42.2,74.42,20.71,19.11,54.4,43.01,33.0,26.97,62.55,17.12,23.96,26.84,47.94,25.6,12.05,34.87,29.39,12.2,48.88,5.04,18.2,35.75,15.63,38.36,54.72,44.72,40.84,14.22,34.1,20.89,61.95,29.99,26.77,52.72,37.19,45.19,21.05,56.45,61.85,29.41,28.59,61.67,54.82,51.19,66.44,39.02,51.9,64.12,69.73,31.86,33.34,27.61,33.77,60.81,31.81,19.21,26.25,34.7,76.9,8.01,68.73,27.54,25.67,44.79,27.97,659.7,20.53,20.32,20.14,88.83,104.81,16.51,29.32,20.02,77.89,38.28,13.21,28.06,31.86,44.26,76.02,121.26
2008-03-05 16:00:00,30.45,35.71,123.96,19.66,45.67,49.19,32.27,32.42,24.03,42.46,34.94,31.51,32.67,33.58,18.62,48.67,55.9,56.3,735.98,21.88,57.55,34.81,40.94,17.21,14.8,18.53,6.84,44.58,45.93,37.77,64.99,14.8,72.67,42.55,38.7,112.57,64.13,82.07,36.73,55.14,43.84,70.54,75.94,33.19,41.61,38.5,117.26,71.37,34.73,52.37,28.83,26.22,38.98,91.49,81.77,59.02,88.46,47.63,66.27,21.23,59.69,40.49,180.79,21.44,33.27,21.25,17.71,18.82,92.18,12.79,54.79,77.41,211.42,21.54,18.58,32.51,42.25,63.56,44.5,36.97,18.99,19.64,15.65,35.75,36.59,57.3,22.12,120.31,18.5,43.91,48.46,44.61,28.99,68.43,57.85,49.85,32.52,18.29,93.38,101.82,46.19,11.77,11.54,73.98,41.35,25.17,28.54,53.75,53.06,57.52,39.79,27.95,59.01,41.36,23.72,15.0,27.17,25.1,31.14,33.8,15.2,51.85,38.27,76.22,33.72,39.21,81.21,19.79,21.31,14.01,45.35,13.35,36.73,29.98,22.16,9.47,78.84,32.55,91.09,37.58,32.09,23.58,26.75,32.22,25.79,41.39,41.68,47.55,99.33,47.53,26.74,43.4,32.67,32.78,44.23,20.89,15.44,28.54,44.91,117.07,32.09,56.77,31.33,58.07,40.2,35.32,89.95,21.49,65.05,39.9,31.3,6.04,19.14,48.16,18.61,87.69,56.61,20.8,15.11,32.17,21.9,53.05,20.42,26.14,67.95,100.08,28.09,32.11,40.21,213.19,27.8,6.62,28.81,24.56,74.51,28.34,48.96,24.45,21.96,43.99,22.19,447.7,34.28,18.7,156.56,27.22,68.88,37.2,42.16,23.43,10.26,13.08,31.38,22.26,22.99,93.35,60.79,37.11,33.09,51.89,47.0,44.56,45.66,14.48,18.94,42.7,43.45,15.66,32.72,67.56,106.37,136.86,38.64,42.43,17.5,26.87,27.85,8.05,39.82,27.34,286.32,42.46,21.64,11.77,29.8,42.89,13.02,79.81,54.19,27.22,61.65,35.34,33.36,43.97,19.42,26.16,26.9,37.57,53.58,18.67,26.04,23.23,43.19,40.53,12.74,15.8,79.32,42.08,97.68,25.14,39.93,59.93,89.38,46.91,61.08,21.81,39.68,5.22,13.03,45.26,12.86,32.16,23.29,188.68,33.29,16.26,16.3,46.86,26.02,56.35,34.97,45.09,53.16,35.58,24.93,31.1,21.96,69.6,21.06,17.38,19.68,107.91,108.42,35.46,28.84,38.61,25.34,38.34,65.7,7.03,77.3,21.71,10.81,77.11,31.75,40.36,47.16,52.64,48.25,32.1,57.22,13.81,56.43,62.91,61.3,42.53,48.46,22.98,62.01,21.61,59.5,21.17,19.97,17.74,52.74,55.01,20.14,41.13,18.27,27.59,71.43,26.35,13.56,26.29,40.83,31.53,33.01,118.37,105.16,16.65,34.42,61.31,17.81,48.64,58.18,16.95,59.66,12.96,23.57,40.94,35.85,40.94,54.34,27.78,19.05,53.21,37.67,32.94,64.52,69.52,23.61,74.79,46.26,38.58,52.36,23.42,41.33,18.66,24.04,17.7,59.88,48.13,55.12,13.8,60.26,22.71,27.06,57.23,7.0,18.96,17.44,30.13,18.52,19.24,21.96,96.56,46.93,53.76,45.79,82.63,18.56,43.73,22.43,40.94,28.08,74.78,20.55,55.94,45.55,51.85,42.32,74.69,20.62,18.76,54.73,42.8,33.96,26.67,62.59,17.02,24.2,27.28,47.2,26.53,12.01,34.93,29.2,12.39,48.64,5.09,18.39,35.61,15.54,37.92,54.58,44.12,41.6,15.43,34.21,21.04,62.28,30.01,27.21,53.76,38.21,45.64,20.8,57.46,62.93,29.34,28.55,62.41,54.82,51.48,66.94,39.33,51.5,63.57,70.52,32.69,33.57,27.81,33.23,60.85,31.96,19.2,26.39,34.73,73.81,8.03,69.44,28.22,26.58,44.5,28.15,659.77,21.12,20.8,19.48,90.57,110.1,16.51,29.1,20.33,78.34,38.04,13.19,28.67,32.93,44.13,76.41,122.03
2008-03-06 16:00:00,29.99,35.39,120.41,19.07,44.91,48.96,31.96,32.47,23.29,42.18,34.89,31.2,32.1,33.02,18.05,47.28,55.46,55.43,707.44,20.65,55.32,34.45,40.05,16.6,14.41,18.2,6.49,43.59,44.03,36.94,62.74,13.88,67.71,40.7,37.81,112.48,62.34,81.08,36.03,54.7,43.41,68.13,73.57,32.56,40.84,37.65,113.67,70.31,33.77,51.9,27.81,25.11,37.19,90.59,79.61,58.18,84.53,46.25,66.02,20.02,56.63,39.53,165.22,21.27,33.49,20.69,17.37,18.07,90.44,12.68,53.92,75.16,202.06,21.16,18.17,31.17,40.62,62.59,43.52,35.45,18.4,19.17,15.28,35.35,35.47,54.93,21.53,118.38,18.5,42.56,47.8,42.96,28.73,67.6,55.4,49.13,31.47,18.13,91.24,95.6,44.94,11.6,11.35,73.84,39.66,24.84,27.42,53.4,51.46,56.77,39.37,27.45,57.74,40.64,23.4,14.5,26.46,24.45,29.39,33.29,14.83,50.1,37.24,75.37,32.72,38.52,79.91,19.43,20.86,13.13,44.7,12.31,36.21,29.61,21.38,9.02,78.38,31.97,90.19,36.76,31.52,23.58,25.33,31.34,25.29,40.54,40.24,47.3,97.54,46.78,26.13,42.92,32.56,32.25,42.97,20.7,15.06,28.13,44.22,114.16,30.41,56.78,30.24,56.4,37.7,34.98,88.17,21.53,63.85,38.37,30.48,5.86,18.22,48.28,17.98,86.24,55.36,19.36,15.0,31.03,21.35,50.98,19.84,25.51,68.93,99.37,27.46,30.96,39.25,208.77,27.19,6.54,28.09,24.0,74.24,27.66,47.81,23.98,21.66,42.17,21.41,432.7,33.87,17.66,150.56,26.28,67.75,36.61,41.57,22.83,9.91,12.68,30.56,21.26,22.13,90.37,58.99,36.91,32.64,50.54,44.92,43.5,45.16,14.98,18.58,43.04,42.73,15.13,31.32,64.91,103.73,132.44,37.87,41.13,17.21,26.58,27.49,7.98,39.57,26.22,270.76,42.06,20.25,11.2,29.5,38.13,12.45,78.47,53.76,25.83,64.75,34.09,31.27,43.34,18.75,25.97,26.03,36.98,53.13,18.53,25.78,23.3,41.21,39.87,12.44,15.03,78.69,41.71,96.41,24.51,39.34,59.08,88.9,45.52,61.08,20.79,37.88,5.11,12.57,45.01,12.37,30.83,21.7,187.68,31.98,15.61,15.87,46.08,25.43,55.47,33.46,43.7,52.2,34.14,24.93,30.83,21.5,68.74,20.58,17.16,19.32,107.13,109.21,34.75,27.93,36.94,24.84,38.03,63.45,6.74,75.34,21.26,10.55,74.93,31.55,38.79,47.33,51.26,47.87,30.62,55.56,13.41,55.5,62.35,59.7,42.04,46.62,22.43,59.94,21.14,58.68,19.84,19.88,17.54,51.3,53.7,19.9,40.82,18.68,26.88,68.92,25.61,13.33,25.65,40.07,30.97,31.86,115.88,105.72,16.21,33.32,61.17,17.44,46.56,58.01,16.51,57.8,12.04,23.59,38.86,35.44,40.94,52.66,26.97,18.64,52.28,36.78,31.54,62.28,66.62,23.09,75.16,46.14,37.58,50.41,22.97,40.29,17.79,22.97,17.46,57.04,47.03,54.66,13.7,59.1,21.98,26.25,56.49,6.8,18.47,16.93,29.57,17.73,19.16,21.72,93.49,46.1,53.03,44.16,82.45,16.96,42.52,21.99,40.94,27.63,71.12,19.85,54.09,45.07,49.83,41.26,72.45,19.69,18.56,51.26,41.9,32.73,26.16,61.44,17.05,23.81,26.95,45.76,25.73,11.8,34.23,29.0,11.9,48.15,4.94,17.89,34.04,14.79,36.94,53.54,42.75,40.98,15.49,32.13,20.6,61.52,29.28,26.71,52.56,37.55,44.28,20.29,55.29,62.71,28.49,27.94,61.61,54.82,49.79,64.85,38.59,49.02,60.31,67.13,32.25,32.56,27.29,32.65,60.64,31.38,18.93,25.34,33.71,72.09,7.92,67.25,27.42,25.38,44.89,27.79,642.88,20.71,20.12,18.39,86.75,107.64,16.06,27.91,19.84,75.93,37.7,12.98,28.7,32.61,42.41,75.34,119.5
2008-03-07 16:00:00,29.92,33.76,121.73,19.48,44.0,49.42,31.02,32.55,23.86,41.03,34.08,31.61,31.97,32.58,17.78,45.64,54.73,54.36,707.44,20.89,56.63,34.19,40.32,16.79,14.02,18.16,6.49,43.53,44.53,36.55,64.09,14.03,66.92,40.95,37.93,112.92,61.97,77.94,35.52,53.5,39.83,64.77,74.79,31.53,40.86,37.87,112.83,67.74,33.98,52.26,27.06,25.33,36.31,89.57,79.07,58.24,84.09,46.53,64.24,20.76,56.2,39.74,163.94,21.09,33.83,20.48,17.46,17.0,89.24,12.35,51.23,77.09,199.58,20.89,17.93,31.26,39.26,61.78,43.94,35.07,18.48,19.07,15.17,35.03,35.36,56.76,21.0,111.66,18.5,42.25,47.72,42.63,29.02,66.87,52.87,48.89,32.44,18.1,88.71,96.43,43.0,11.55,11.31,70.6,40.46,24.39,27.17,52.72,50.32,57.02,38.49,27.33,56.66,39.28,23.56,14.28,26.17,24.28,29.19,32.73,14.81,48.88,36.97,73.19,32.48,37.3,75.7,19.35,20.53,13.47,44.39,12.13,35.73,29.15,20.8,8.89,77.49,31.24,88.79,36.68,30.79,23.58,24.67,31.32,24.75,40.26,39.7,46.03,96.32,46.31,25.78,42.45,32.52,32.29,42.93,20.77,15.03,27.4,43.14,113.04,30.82,57.0,29.25,56.37,37.4,34.04,87.08,21.73,63.86,37.92,30.12,5.7,18.23,46.22,17.42,84.24,54.98,19.39,15.3,31.3,20.77,49.97,20.09,25.09,66.16,95.16,26.13,30.89,38.2,196.82,26.47,6.48,28.18,23.85,73.88,27.13,48.7,23.89,21.36,41.51,21.27,433.35,33.79,17.85,151.91,25.61,66.81,36.0,41.92,22.77,10.12,12.71,31.22,21.51,22.24,89.1,59.37,36.91,31.94,49.73,45.45,43.09,44.71,14.99,18.44,42.73,42.09,15.27,30.82,62.56,105.04,131.89,37.29,40.24,17.39,26.46,26.88,7.91,39.78,26.42,264.75,41.47,19.85,10.97,28.94,36.55,12.41,76.02,52.8,24.95,62.3,34.26,29.26,43.0,19.15,25.83,26.57,37.55,52.79,17.84,25.67,23.74,41.4,39.64,12.45,14.71,77.57,41.17,96.36,25.14,39.36,58.76,88.07,45.64,61.08,20.57,38.36,4.99,12.3,45.03,12.06,30.76,21.56,190.17,31.91,15.88,16.01,45.41,25.4,54.89,33.46,43.01,52.01,34.26,24.93,30.8,21.67,67.47,20.28,17.29,19.1,99.68,101.97,34.23,27.67,37.11,25.11,37.57,64.59,6.88,73.45,21.27,10.6,73.15,31.61,37.79,45.82,51.05,46.6,31.26,54.61,13.44,54.25,61.87,57.33,42.02,46.25,22.5,60.37,21.06,57.09,19.55,19.87,17.26,50.39,53.0,19.86,40.34,18.46,26.73,67.85,25.23,13.14,25.69,39.04,31.43,32.21,116.92,103.48,16.2,32.45,60.71,17.24,46.25,57.39,16.6,57.42,11.7,22.63,39.61,35.47,40.94,53.72,27.05,18.45,50.48,36.6,31.36,62.65,67.58,21.92,71.94,46.71,37.4,49.77,23.11,39.41,18.14,22.44,17.32,56.21,46.18,53.16,13.2,57.69,22.05,26.3,55.63,7.01,18.62,16.44,29.61,17.8,19.01,21.45,92.36,45.69,51.11,43.82,80.52,17.6,42.8,21.41,40.94,27.54,72.64,19.92,54.0,44.99,50.6,40.41,72.65,19.66,18.31,50.27,41.41,31.42,26.32,59.73,16.94,23.64,26.94,45.29,24.94,11.82,34.26,28.96,11.9,47.91,4.88,17.02,34.29,14.69,37.29,53.31,42.57,41.1,15.07,31.29,20.65,59.82,29.15,26.8,52.1,37.63,43.7,20.22,54.68,62.64,28.97,27.74,60.41,54.82,48.45,65.13,38.4,48.09,59.03,68.17,31.2,32.96,27.14,32.54,59.1,30.28,18.9,25.59,33.18,73.28,7.95,65.24,27.34,25.04,44.82,27.66,628.65,20.26,19.8,18.59,84.76,104.9,16.09,27.56,20.19,74.11,37.77,12.71,29.03,31.96,43.11,74.73,118.27
2008-03-10 16:00:00,29.4,32.87,119.18,19.29,43.62,48.78,30.33,31.94,23.71,39.1,34.08,31.55,32.01,32.29,17.5,45.22,53.64,53.89,692.1,20.67,55.97,32.36,40.3,16.59,13.1,18.37,6.16,44.02,42.98,35.27,63.47,13.71,65.33,36.99,37.71,112.08,61.0,75.19,34.89,54.99,38.49,60.94,72.12,31.73,39.93,36.51,110.23,65.77,32.66,51.16,26.8,25.34,36.21,88.52,77.17,57.86,81.74,46.54,63.1,19.7,54.74,38.56,158.62,20.53,33.93,20.07,17.02,16.8,87.26,12.33,48.87,75.31,187.94,20.87,17.9,30.74,37.69,60.79,43.57,34.77,17.69,18.75,15.33,34.0,34.81,55.38,20.56,102.56,18.5,41.64,45.77,42.72,28.71,67.14,49.47,48.67,32.32,17.84,83.27,90.57,42.68,11.42,11.37,65.05,38.5,23.91,25.73,51.65,49.67,56.97,37.55,27.33,56.08,39.03,23.44,14.25,25.7,23.8,27.72,31.41,14.31,49.03,36.73,72.74,32.44,36.65,73.91,19.12,20.09,12.66,44.51,11.97,34.77,28.86,19.99,8.68,75.31,30.15,87.36,35.61,29.99,23.58,24.63,31.26,23.98,40.21,39.07,45.63,95.85,44.68,25.72,40.8,32.51,31.49,42.66,20.92,14.7,26.91,42.12,111.2,30.02,57.23,29.39,55.58,35.8,33.54,86.5,22.05,63.23,36.5,30.41,5.52,17.5,43.48,17.47,82.56,54.45,19.03,15.23,30.7,20.39,49.4,20.09,23.27,63.44,90.86,25.3,29.68,37.52,176.57,25.53,6.31,28.02,23.63,72.96,26.68,46.13,24.43,21.48,42.14,20.75,413.62,33.03,17.62,147.65,25.35,65.96,35.04,41.6,22.25,9.91,12.54,30.97,21.32,21.48,89.33,58.98,37.35,31.61,48.95,44.68,41.82,44.22,14.84,18.55,41.26,42.09,15.06,31.03,61.75,105.1,122.93,36.53,39.52,17.43,26.19,26.36,7.75,38.25,25.58,255.58,40.71,19.06,10.99,27.95,36.04,11.98,70.75,52.64,24.6,59.8,33.28,29.31,43.27,19.09,25.91,25.92,36.65,52.88,17.43,25.59,23.43,40.84,39.13,12.08,14.03,77.21,39.81,95.03,24.77,39.13,55.06,85.63,45.73,61.08,19.85,37.39,4.86,12.57,42.68,11.95,30.3,21.43,189.17,31.1,15.63,15.82,46.74,25.17,53.29,33.02,42.63,51.95,33.47,24.93,31.1,21.29,66.56,19.63,17.34,18.95,94.77,93.45,33.83,27.91,35.66,25.28,36.5,64.27,6.41,71.97,20.92,10.33,71.56,30.85,35.86,44.36,50.63,46.42,33.21,53.52,13.36,53.07,61.39,55.72,41.61,45.54,21.5,58.91,20.87,54.23,18.43,19.65,16.99,47.8,52.21,19.39,39.68,18.73,26.46,67.1,25.22,12.97,25.66,38.39,31.06,31.38,109.77,99.4,15.7,32.62,60.21,17.08,45.19,57.36,16.3,55.86,11.63,21.69,39.59,33.95,40.94,52.79,27.01,18.32,49.56,36.39,31.51,61.39,67.82,21.12,70.7,46.35,36.41,49.87,23.66,39.0,17.78,22.1,17.32,54.53,45.93,51.61,12.97,56.39,22.02,25.72,54.85,6.72,18.28,16.16,29.55,17.41,18.97,21.13,91.0,46.0,49.99,44.61,77.88,15.93,41.78,21.14,40.94,27.4,70.93,19.24,52.65,44.62,50.13,39.7,69.3,19.21,18.7,49.74,40.54,31.14,26.13,56.89,16.76,23.59,26.67,45.88,24.18,11.78,34.34,28.07,11.67,47.2,4.9,15.08,32.81,14.63,37.18,52.09,40.47,40.77,14.93,31.7,20.23,58.36,28.38,27.12,50.7,36.68,43.56,20.07,54.48,61.97,28.87,27.48,59.28,54.82,46.1,63.09,37.5,47.4,56.94,66.4,30.25,32.93,26.59,32.12,57.79,29.64,18.87,25.39,31.88,71.99,7.75,64.07,27.38,24.53,43.88,27.6,615.14,19.96,19.44,18.46,83.47,99.46,16.03,26.31,19.81,74.09,36.64,12.91,28.51,32.0,43.11,73.38,116.71
2008-03-11 16:00:00,30.19,34.83,126.81,19.07,43.85,50.65,31.31,32.6,24.23,40.58,34.77,33.21,32.74,33.55,17.87,41.47,55.03,55.04,725.92,22.3,56.97,33.96,41.59,17.51,13.0,18.93,6.48,43.96,46.66,36.6,67.15,14.51,69.37,39.76,38.73,115.5,64.16,79.35,35.53,60.11,41.29,67.01,77.14,32.39,40.03,39.96,114.84,64.91,34.88,52.08,28.65,27.66,37.68,91.64,77.97,59.55,88.52,48.16,64.36,20.76,57.68,41.93,168.05,21.39,34.09,20.98,17.34,17.03,88.0,12.56,51.6,80.8,205.12,21.25,18.42,31.65,39.9,64.23,45.22,36.15,19.2,19.47,15.48,34.99,35.86,57.14,20.83,114.68,18.5,43.42,48.35,38.53,30.26,68.24,53.53,48.97,35.18,18.04,91.07,96.38,46.16,11.65,11.59,67.3,43.59,24.15,27.03,52.29,51.05,59.21,38.51,27.47,58.45,39.8,24.58,14.85,26.81,24.29,29.47,32.18,14.39,42.68,37.76,75.68,33.43,38.6,77.98,19.83,20.75,14.3,45.46,13.41,35.68,29.55,21.05,8.87,75.51,32.55,92.45,37.42,31.56,23.58,25.48,32.3,24.9,41.79,42.0,43.7,99.48,47.12,26.41,42.87,33.14,32.69,43.71,21.35,15.03,28.04,43.81,118.32,32.13,57.59,29.31,57.26,38.4,34.81,89.51,21.99,66.15,39.12,30.83,5.82,18.29,46.95,18.0,85.66,56.23,19.58,16.27,33.37,21.02,50.92,22.03,26.48,67.67,93.8,26.53,31.01,38.28,198.11,26.66,6.5,28.36,24.47,74.34,28.11,47.26,24.95,22.39,45.58,21.53,439.84,33.58,18.16,154.75,26.11,67.57,36.36,43.23,23.37,10.66,13.45,32.46,22.82,22.72,94.13,62.18,38.04,33.42,50.08,46.13,43.46,45.36,15.1,18.84,43.14,42.27,15.93,31.99,46.67,107.39,137.29,38.06,41.77,18.37,26.29,27.41,7.93,39.97,25.76,267.17,42.08,20.18,11.51,29.29,36.31,12.1,75.46,53.6,25.77,64.97,35.43,30.43,44.22,20.83,26.45,27.73,37.68,53.14,18.52,25.94,24.05,41.99,40.38,12.01,14.95,77.68,40.12,97.01,25.79,40.06,59.44,86.78,47.77,61.08,20.4,39.0,5.25,13.22,45.25,12.27,31.08,22.21,193.46,32.59,16.27,16.67,47.13,26.42,52.88,32.74,43.36,53.92,32.86,24.93,32.03,21.74,68.74,19.88,17.46,19.46,101.48,104.91,34.69,29.22,39.56,26.38,38.3,70.14,6.86,73.95,21.8,10.47,74.61,32.25,39.09,47.73,51.54,49.0,33.08,55.67,13.68,53.95,62.4,58.67,42.54,47.2,22.2,63.19,20.94,57.76,19.04,19.89,17.39,51.87,53.49,19.57,40.01,18.96,27.06,71.77,26.17,13.98,26.46,41.04,31.94,32.34,115.19,100.68,16.35,33.43,61.02,17.54,46.94,58.14,16.67,58.51,12.34,22.22,41.57,34.15,40.94,57.09,27.71,18.84,51.48,37.62,34.09,65.84,72.74,22.95,75.72,48.38,36.64,52.97,23.73,41.21,19.53,23.49,17.28,56.55,47.5,53.48,13.6,60.39,22.49,26.14,55.14,6.17,18.61,17.06,29.78,19.16,19.83,22.17,93.3,46.81,52.47,44.86,81.46,18.82,42.54,21.79,40.94,28.21,77.19,19.97,53.77,45.59,54.09,40.07,74.28,19.74,19.25,51.52,42.14,32.56,26.91,58.29,17.23,24.06,27.77,46.12,24.78,12.16,35.06,28.74,12.19,47.52,4.97,15.77,34.8,15.35,38.24,53.18,44.89,42.77,15.3,33.83,20.77,58.31,29.11,26.3,52.18,37.36,36.96,20.41,57.12,63.36,30.0,29.51,61.2,54.82,46.98,65.19,37.47,49.27,59.36,72.31,31.96,34.83,27.24,33.3,59.15,30.88,18.99,28.06,32.33,74.43,8.14,45.94,28.13,24.84,45.13,27.87,636.92,20.73,20.36,18.88,88.07,107.45,16.61,28.56,21.11,77.88,36.38,13.26,29.0,32.96,47.56,74.66,120.91
2008-03-12 16:00:00,30.28,34.86,125.49,18.79,44.26,49.03,31.09,33.34,24.27,40.23,35.07,32.9,32.4,32.84,17.58,43.31,54.56,55.82,720.14,22.11,55.82,33.24,40.39,17.04,13.03,18.96,6.43,44.33,45.39,36.13,66.51,13.87,67.38,39.02,38.69,114.28,62.91,79.46,35.44,56.53,40.75,65.81,76.91,32.21,40.22,38.97,111.57,64.07,34.25,52.1,28.5,26.94,36.75,91.45,79.34,59.5,87.39,48.07,62.69,21.04,59.38,41.41,163.87,21.1,34.15,20.87,17.05,17.18,87.14,12.75,49.01,79.0,202.44,21.42,18.28,30.58,42.47,66.57,43.88,35.58,18.7,19.14,15.5,34.59,35.39,56.56,21.09,113.65,18.5,44.08,48.46,39.71,29.78,68.25,55.44,48.61,34.01,17.89,89.97,99.08,47.08,11.38,11.31,65.65,44.46,23.83,26.82,51.82,50.3,59.19,39.41,28.2,58.21,39.5,24.57,14.95,26.69,23.93,28.86,31.99,14.42,41.9,37.41,74.45,33.31,38.61,76.39,19.69,20.53,14.54,45.2,12.77,35.78,29.76,21.04,8.97,75.13,31.92,90.0,37.41,31.72,23.58,25.91,31.75,25.01,41.17,43.66,45.75,97.79,47.23,26.59,42.04,32.73,32.92,42.75,21.42,14.89,28.26,43.75,115.44,31.68,57.33,28.44,57.01,37.7,35.37,89.07,22.1,65.05,39.1,30.3,5.62,18.82,47.14,17.87,84.59,55.7,19.9,16.38,32.34,20.84,49.53,21.06,26.16,66.27,93.77,27.01,31.41,38.29,205.88,26.59,6.35,28.1,24.61,75.49,28.58,48.01,25.22,22.0,44.98,21.17,440.18,33.5,18.01,154.7,25.5,68.22,35.93,43.84,23.2,10.43,13.33,32.37,22.58,22.66,97.76,61.91,38.5,33.07,50.1,46.13,43.02,44.75,14.9,18.73,43.51,42.38,15.54,32.44,40.26,107.92,133.59,37.95,40.82,18.3,26.24,27.61,7.86,40.57,25.6,274.38,41.85,20.39,11.3,29.75,35.47,12.75,74.76,53.69,25.57,65.08,35.22,30.08,44.4,19.99,26.34,27.27,33.97,52.49,18.61,25.99,23.19,40.87,39.71,12.03,14.36,76.79,39.39,97.88,25.78,39.42,57.66,85.74,46.75,61.08,20.03,38.53,5.27,13.48,45.95,11.37,30.79,21.49,201.42,31.79,15.91,16.75,46.65,26.2,52.74,32.03,43.55,53.15,32.67,24.93,31.7,22.01,69.15,20.81,17.09,19.6,99.28,103.98,34.8,27.88,38.18,25.8,38.63,67.88,6.5,73.51,21.57,10.5,74.16,31.85,38.73,47.11,51.41,48.3,34.04,54.65,13.57,55.67,62.14,57.75,42.51,47.41,21.36,61.46,21.03,57.83,18.52,19.56,17.65,50.35,54.06,20.06,39.98,19.12,27.12,69.78,26.19,13.55,26.55,41.22,31.15,32.21,120.94,95.59,16.03,33.63,60.68,17.19,46.65,58.48,15.22,58.34,11.64,22.2,41.7,33.92,40.94,56.52,27.2,18.66,51.56,37.32,34.03,64.08,72.23,22.12,75.01,47.87,36.95,51.67,23.66,40.31,19.04,23.26,17.15,56.76,47.91,54.48,13.52,59.41,22.62,26.36,55.49,6.22,18.43,16.93,29.56,18.67,19.57,22.08,93.63,46.51,52.83,45.04,79.33,17.34,42.32,22.52,40.94,27.84,74.71,19.48,53.99,45.46,53.14,40.49,73.81,19.67,18.69,47.74,42.86,32.22,27.0,58.21,17.2,24.14,27.18,47.61,24.77,11.94,34.81,28.79,12.15,47.07,4.95,15.11,34.08,15.29,36.92,53.03,43.65,40.54,15.68,30.53,20.3,57.84,28.95,25.96,52.07,37.59,35.45,20.01,56.59,62.62,30.04,29.03,61.05,54.82,47.84,68.17,37.4,46.39,59.43,69.94,31.42,34.81,26.75,33.4,59.22,30.48,18.82,26.9,31.9,74.47,7.89,45.15,28.32,24.64,45.38,27.53,623.14,20.12,20.58,18.67,88.62,108.54,16.23,27.93,21.17,77.24,36.61,13.26,28.45,32.97,46.52,75.67,119.78
2008-03-13 16:00:00,30.35,35.48,127.39,18.78,45.3,49.64,31.3,33.3,24.65,40.36,34.92,34.53,32.23,32.56,17.83,43.44,54.87,55.92,700.84,22.53,55.45,32.51,40.64,16.79,13.82,19.04,6.73,46.48,46.06,37.07,68.32,14.07,68.99,41.62,39.0,116.46,64.18,80.45,35.83,58.67,41.0,68.57,77.82,32.99,40.8,38.93,115.18,65.6,34.35,51.25,28.55,26.89,36.98,92.8,78.77,59.11,87.46,47.75,64.81,21.02,60.45,41.37,166.54,21.34,34.39,21.02,17.09,17.41,86.68,12.86,52.56,79.02,201.11,21.1,18.36,28.71,42.97,66.94,43.97,35.7,19.37,19.06,15.21,35.35,36.1,57.77,20.66,117.12,18.5,46.27,49.26,40.8,29.71,68.87,56.52,48.93,34.71,17.85,91.5,101.01,47.58,11.39,11.15,67.83,46.23,25.12,27.09,51.71,50.1,58.78,40.27,27.96,58.91,38.79,24.38,15.05,26.82,24.01,28.69,32.09,14.14,43.78,37.95,74.72,32.95,39.22,76.62,19.85,20.04,14.99,44.64,13.56,36.1,29.69,21.19,9.17,75.12,32.57,92.38,37.32,31.85,23.58,25.7,31.54,25.25,41.69,44.13,45.03,100.22,47.26,26.7,41.76,32.64,32.84,42.53,21.63,15.16,28.88,43.49,123.23,32.42,58.38,28.94,58.46,38.6,35.77,89.92,22.06,66.04,39.16,31.0,5.32,19.39,47.84,17.67,84.6,54.84,19.88,16.54,31.94,20.74,48.74,20.84,26.02,67.18,94.85,27.5,31.77,39.2,207.29,27.24,6.36,28.32,24.74,76.81,28.83,48.49,25.16,22.16,45.88,21.25,443.01,33.19,18.44,157.0,25.89,67.94,36.55,43.59,23.77,10.73,13.7,33.1,22.37,22.96,97.95,61.4,38.47,33.54,49.85,47.0,44.7,44.51,14.99,18.78,43.51,42.45,15.61,32.37,44.3,106.85,138.28,38.24,41.59,18.44,26.08,27.3,7.92,41.09,25.59,284.98,42.02,20.41,11.53,30.4,35.38,12.85,75.32,53.91,25.61,66.1,34.76,29.92,43.75,20.48,25.77,27.16,34.23,52.89,18.81,25.87,23.13,40.19,39.97,12.31,14.97,76.4,40.49,99.96,26.11,38.93,57.46,86.31,46.81,61.08,19.89,40.46,5.25,13.58,45.55,11.58,30.9,21.54,207.17,31.65,16.07,16.75,47.68,26.5,50.65,32.22,43.41,53.03,32.51,24.93,31.7,22.02,69.73,20.0,17.04,19.76,103.0,106.74,34.37,28.16,38.73,25.79,38.05,68.77,6.49,74.31,21.96,10.69,74.54,32.08,40.47,47.46,52.03,50.56,34.21,56.68,13.59,56.85,61.71,58.87,42.32,48.08,21.72,62.07,21.14,62.09,19.7,20.1,17.57,51.91,54.47,20.29,40.09,19.28,27.13,70.66,26.07,13.8,26.78,41.53,31.0,32.61,122.49,99.02,15.77,33.68,60.4,17.13,46.3,58.75,15.07,59.37,12.51,22.74,41.5,34.05,40.94,56.07,27.21,18.75,52.21,37.0,35.25,64.11,74.28,23.02,75.81,49.32,37.41,53.44,23.11,40.72,19.17,23.33,17.42,56.72,47.69,55.12,13.75,62.43,22.52,26.44,56.36,5.99,18.27,16.95,29.64,19.17,19.62,22.34,94.58,47.46,53.34,45.23,80.1,16.79,42.64,23.0,40.94,27.81,76.26,19.77,53.4,45.51,53.26,40.07,75.52,20.0,18.2,48.65,42.68,33.68,26.82,57.16,17.26,23.83,27.32,47.7,24.53,11.85,34.84,28.65,12.16,46.58,5.12,14.98,35.47,15.23,37.34,54.11,42.97,41.27,15.82,30.87,20.16,57.62,28.46,26.54,51.89,37.07,37.0,19.98,56.59,61.57,30.5,29.35,61.32,54.82,46.42,67.78,37.74,46.74,59.43,71.06,31.07,34.57,26.82,33.46,59.13,31.23,18.82,26.84,31.05,74.37,7.9,46.13,28.1,24.82,45.66,27.95,603.57,20.07,20.81,18.81,88.81,112.64,16.25,27.17,21.3,78.21,36.53,13.13,27.5,33.4,46.71,76.02,120.04
2008-03-14 16:00:00,29.49,35.41,126.07,18.56,44.3,48.3,30.65,32.61,24.08,39.97,34.47,34.08,32.02,32.25,17.6,42.51,54.31,55.01,679.39,22.1,54.23,31.19,39.55,16.84,13.55,18.6,6.38,43.8,44.53,37.15,68.22,13.74,67.31,40.24,37.64,114.13,62.73,79.24,34.73,59.6,40.17,68.12,76.46,32.56,39.8,37.39,113.61,67.41,33.01,50.89,28.86,26.38,36.44,92.56,78.41,57.61,84.76,47.56,64.2,20.4,60.33,39.19,159.86,20.87,33.78,20.7,16.47,16.55,86.36,12.63,50.63,76.24,188.8,20.8,17.96,28.25,42.73,66.16,43.39,34.81,18.37,18.71,15.02,34.45,34.83,56.3,20.11,113.07,18.5,45.23,48.34,39.7,28.94,68.12,55.89,48.26,33.47,17.41,87.74,99.61,45.98,11.29,11.08,65.41,44.66,26.35,26.76,51.52,49.76,57.55,39.36,27.43,57.85,38.92,23.77,14.85,26.04,23.66,27.27,30.8,13.95,42.43,36.68,73.26,32.87,38.94,75.39,19.4,19.42,14.72,44.03,13.02,35.91,29.17,20.66,8.91,75.44,31.52,91.88,36.34,31.49,23.58,25.57,31.12,24.75,41.1,42.76,43.87,98.82,46.91,26.25,41.24,32.38,32.04,42.29,21.05,14.79,28.56,42.43,122.4,32.4,57.79,28.22,58.54,36.3,35.4,88.58,22.0,65.3,37.86,29.87,5.22,19.41,47.02,17.27,82.4,54.43,19.87,15.89,30.41,20.09,48.18,19.95,25.62,65.22,90.95,27.09,30.71,38.22,200.84,27.67,6.19,28.08,23.47,75.29,28.47,47.55,24.97,21.79,47.7,20.47,437.92,32.93,18.06,148.86,25.61,67.12,36.38,41.99,23.24,10.33,13.44,32.9,23.03,22.33,96.34,59.36,37.95,32.27,49.35,47.04,44.81,43.47,14.79,18.47,42.15,42.0,15.19,32.06,43.32,106.23,131.33,37.82,40.51,17.9,25.24,27.69,7.82,40.04,24.38,283.07,41.13,19.69,11.26,29.49,34.5,12.55,73.04,53.78,24.68,64.46,33.33,29.5,43.39,19.42,25.42,26.26,32.51,52.35,19.15,25.26,22.47,39.98,38.94,11.97,14.54,75.05,40.89,98.3,25.73,37.86,54.58,85.82,44.81,61.08,19.4,38.54,4.96,13.58,44.12,11.52,30.04,20.87,206.11,31.38,15.63,16.37,47.59,25.95,50.58,30.54,42.63,52.03,31.36,24.93,30.97,21.33,68.37,19.41,16.65,19.35,101.86,105.08,33.59,27.24,36.82,25.2,36.85,66.83,6.14,72.96,21.89,11.07,72.86,32.13,38.63,46.86,52.02,50.42,33.26,56.15,13.36,55.86,60.73,57.53,41.06,47.13,21.08,59.62,21.18,61.0,18.32,19.7,17.08,49.78,52.97,19.79,39.55,18.96,26.66,68.74,25.73,13.6,26.09,42.11,30.84,32.09,117.63,97.29,15.2,33.1,59.71,16.67,43.98,58.21,14.72,57.87,12.12,22.0,41.16,33.25,40.94,54.68,26.95,18.6,50.86,37.06,34.05,62.17,73.29,21.79,75.23,47.36,36.47,53.43,23.26,39.85,18.37,22.84,17.05,56.23,46.73,53.86,13.39,61.66,22.2,25.77,55.59,6.02,18.09,16.72,29.35,18.51,19.08,21.86,95.07,47.65,52.72,45.05,78.91,15.88,41.89,22.15,40.94,27.67,74.46,19.12,51.42,45.58,51.3,40.0,72.53,20.08,18.27,46.84,41.77,32.92,26.39,57.88,16.46,23.44,26.96,46.81,23.71,11.77,34.24,28.34,11.99,45.91,5.01,14.26,34.53,15.17,36.9,53.04,41.82,39.59,15.2,28.71,20.15,56.95,27.52,25.8,50.62,36.33,35.94,19.6,56.3,60.59,30.22,28.36,60.61,54.82,45.53,66.64,37.28,44.98,58.87,67.73,30.41,34.41,26.16,32.94,57.55,31.27,18.75,25.9,30.36,72.57,7.79,45.77,27.29,24.29,44.96,27.56,599.76,19.63,20.42,18.88,88.27,112.94,16.22,26.92,20.89,77.19,35.97,12.98,26.71,32.77,45.04,76.15,118.18
2008-03-17 16:00:00,29.52,34.22,126.19,18.52,45.31,48.39,30.39,30.79,24.34,38.35,33.95,33.91,32.64,32.45,16.07,41.63,54.61,54.89,656.62,22.26,53.41,29.69,39.75,16.93,12.74,18.68,6.34,42.45,44.73,37.46,66.53,13.74,67.12,37.2,37.4,110.63,59.93,79.59,34.32,53.77,39.67,66.0,77.4,32.81,39.53,38.03,110.86,66.75,33.26,50.12,28.82,26.89,35.91,92.41,78.04,57.79,83.83,48.0,62.93,19.96,58.7,36.29,158.22,20.57,31.79,20.79,16.33,15.99,84.9,12.2,48.3,74.63,177.72,20.59,17.84,27.96,39.65,65.87,43.3,33.44,18.12,18.99,15.04,33.36,33.57,54.35,19.43,106.98,18.5,43.35,47.3,39.2,29.17,68.45,52.3,47.84,33.44,17.34,81.09,98.24,44.87,11.2,11.02,61.78,44.28,24.17,25.71,50.9,48.73,57.07,39.54,27.35,55.51,37.71,23.74,15.55,25.93,24.07,26.81,31.0,13.7,40.71,35.65,72.27,33.4,37.99,73.71,19.39,19.29,14.45,42.71,12.84,35.88,28.86,20.22,8.61,74.58,29.05,87.97,35.88,30.99,23.58,25.73,31.16,24.45,42.14,40.54,42.48,95.27,45.86,25.77,40.53,32.48,31.61,42.33,21.04,14.47,27.73,42.45,116.87,32.1,54.92,28.13,56.43,32.9,34.58,88.22,22.08,65.0,37.45,29.31,5.04,19.43,43.78,17.11,80.21,54.8,19.57,15.51,28.6,19.37,47.48,19.29,25.24,60.23,89.04,26.53,29.1,37.89,193.9,26.25,6.29,27.58,24.14,75.19,28.9,46.76,24.78,21.72,45.71,19.98,419.87,33.02,17.94,143.32,23.85,68.17,34.68,40.65,23.02,9.21,13.99,32.88,23.18,22.28,93.06,58.52,37.4,31.81,48.55,45.46,43.98,43.94,15.54,18.16,41.43,42.0,14.71,31.56,44.95,106.52,122.41,37.63,40.74,18.06,25.14,25.3,7.79,39.9,23.46,279.87,41.9,19.13,11.23,28.92,33.49,12.45,69.89,54.97,24.26,62.32,36.77,28.95,43.27,19.49,25.42,26.4,32.01,52.59,18.21,25.33,22.69,38.64,37.93,11.89,13.26,73.78,39.19,98.16,25.88,38.7,49.0,85.4,43.79,61.08,18.86,37.51,4.93,13.37,42.43,11.45,30.0,19.95,199.07,30.31,15.83,16.24,47.15,26.04,49.78,29.82,42.82,52.05,31.01,24.93,30.76,20.78,69.23,18.53,16.4,19.47,99.86,100.84,34.31,25.11,33.87,25.5,35.69,66.97,6.02,70.08,21.75,10.77,68.79,31.22,36.06,44.69,52.6,50.18,32.99,52.81,13.39,55.2,62.1,53.23,39.67,47.16,20.7,58.49,21.02,60.33,17.86,19.56,17.08,47.21,51.48,19.17,38.91,18.73,26.0,64.54,25.65,13.75,25.64,40.95,30.79,32.15,111.08,95.35,14.5,33.28,60.32,16.61,43.47,58.48,14.88,57.42,11.54,21.64,41.4,33.35,40.94,55.78,27.23,18.42,49.99,37.11,33.76,62.27,72.89,20.79,75.24,45.89,35.79,52.54,22.32,37.04,17.69,22.24,16.58,55.22,47.11,53.3,13.06,58.96,21.69,25.81,55.71,5.66,17.32,16.6,28.98,17.55,19.02,21.57,95.27,46.51,53.21,44.3,76.4,15.79,41.25,21.6,40.94,28.48,75.82,19.31,50.89,44.04,50.14,39.69,71.19,19.24,17.95,43.84,41.12,31.05,25.67,57.57,16.5,23.87,27.54,45.63,22.65,11.76,34.35,27.85,11.91,44.68,4.84,13.49,33.3,14.99,37.01,52.3,41.59,40.51,14.88,25.88,20.06,57.04,27.28,26.23,49.2,37.25,32.71,19.5,56.04,60.59,29.57,29.28,60.47,54.82,44.57,66.76,37.12,42.76,57.9,66.27,30.82,34.67,26.77,32.74,56.88,29.69,18.75,26.2,29.85,70.81,7.97,46.98,27.78,23.26,45.08,28.0,587.1,19.43,20.78,17.58,88.52,108.64,16.18,24.97,21.18,77.08,35.54,13.21,25.85,33.16,44.75,75.2,116.99
2008-03-18 16:00:00,30.32,35.6,132.25,18.97,46.4,51.12,31.71,31.88,24.84,39.67,35.3,33.05,33.52,32.55,16.41,41.03,56.72,55.27,720.47,23.74,55.81,31.4,41.45,17.67,13.88,19.46,6.39,40.6,46.96,38.96,71.7,14.41,70.28,40.06,38.74,114.91,62.97,83.21,36.56,57.37,42.71,71.17,80.91,34.29,40.9,39.85,113.88,67.67,36.0,52.01,31.05,27.89,37.44,94.0,81.15,59.28,89.71,49.71,66.18,21.01,59.97,40.88,166.89,20.99,33.08,21.04,17.04,17.11,86.11,12.6,50.85,79.37,197.67,21.15,18.48,28.47,42.13,68.0,44.32,33.91,20.0,19.55,15.27,33.9,35.32,57.74,19.7,116.68,18.5,45.24,50.02,39.33,30.07,69.3,55.55,48.61,35.14,17.83,85.39,101.54,47.83,11.54,11.28,65.79,48.04,25.18,27.32,52.23,50.26,58.31,41.0,27.95,58.61,38.64,25.0,16.57,26.43,24.17,28.86,31.89,13.66,40.89,37.29,73.93,34.25,39.35,75.89,20.32,19.95,16.56,44.61,13.82,37.68,30.06,20.64,9.04,77.12,30.09,92.05,37.67,32.36,23.58,26.08,31.73,25.21,42.61,43.46,44.0,99.26,46.97,27.55,42.15,33.08,32.4,42.82,21.54,14.94,27.77,43.4,119.84,34.05,55.94,30.15,59.47,36.1,36.32,88.56,23.0,66.41,39.85,30.68,5.22,19.83,45.67,17.9,84.46,56.31,20.69,16.24,31.14,19.87,47.29,20.36,27.22,65.86,93.94,27.32,31.77,38.07,204.02,28.43,6.62,28.04,24.91,76.15,30.42,48.09,25.41,22.81,47.22,21.58,439.16,33.73,18.72,166.64,25.2,70.18,35.65,41.86,23.74,9.73,14.69,33.82,24.23,23.57,95.58,63.16,38.16,33.57,49.92,46.3,46.28,45.37,16.73,18.51,42.65,43.02,15.2,32.01,43.53,109.16,132.75,39.0,42.05,18.84,26.76,24.7,8.16,41.28,23.46,294.75,43.16,20.51,11.43,30.21,35.56,12.95,73.49,56.06,25.48,65.02,38.96,30.02,44.47,20.44,26.01,28.22,33.39,53.57,20.5,26.08,23.29,41.11,39.65,12.35,15.04,75.14,40.61,100.33,26.88,39.53,51.15,86.68,47.66,61.08,20.55,38.78,5.28,14.07,45.13,12.03,31.18,20.99,207.69,31.38,16.95,16.6,47.65,27.3,51.88,32.85,43.68,54.88,32.49,24.93,31.78,21.82,71.38,19.61,16.78,20.08,104.94,107.59,35.41,26.1,39.91,26.51,37.59,68.87,5.99,72.89,22.57,11.18,71.76,31.75,39.49,47.51,52.63,47.84,35.0,54.65,13.64,57.45,62.48,55.44,40.19,50.66,20.84,63.36,21.28,63.78,18.97,20.21,17.57,52.0,53.47,19.63,39.79,19.45,28.39,67.55,26.53,14.4,26.45,43.79,31.14,33.71,123.06,101.55,15.14,34.65,61.08,16.96,46.79,59.78,15.53,60.43,12.84,22.01,43.11,35.04,41.11,58.23,27.87,18.91,51.66,37.63,35.97,65.76,77.0,22.67,78.55,48.06,37.3,55.89,22.96,39.19,18.15,23.46,17.04,57.61,49.09,55.32,13.46,61.72,21.64,26.21,56.49,5.92,18.29,17.54,29.66,18.0,19.49,22.0,98.16,49.16,54.57,45.19,79.35,16.46,43.01,22.59,40.94,28.86,80.64,20.52,51.54,44.55,53.14,40.78,77.43,19.64,18.79,46.55,42.42,32.98,26.49,59.78,16.87,24.65,28.53,47.08,23.73,11.97,34.94,28.71,12.46,46.98,4.98,14.04,33.47,15.53,38.27,53.89,44.38,42.08,15.78,28.17,20.97,57.53,28.13,26.96,52.58,39.17,33.89,20.08,59.31,62.59,30.19,30.22,62.5,54.82,47.24,68.25,38.51,45.85,60.67,69.18,32.25,36.02,27.3,33.75,57.28,31.47,19.08,28.72,31.51,74.8,8.3,45.82,28.66,23.99,46.01,28.83,607.88,20.66,21.21,18.17,90.41,115.46,16.6,28.23,21.55,79.49,35.72,13.9,27.66,34.28,47.05,76.32,121.85
2008-03-19 16:00:00,29.21,32.86,129.12,19.72,46.89,49.39,31.6,34.75,23.89,38.46,35.26,31.39,33.03,32.28,15.98,41.13,56.62,55.34,695.89,23.39,55.49,29.37,40.22,17.17,13.81,18.68,6.15,39.38,45.84,38.72,70.17,14.56,68.63,36.69,38.21,107.02,59.28,79.89,35.19,54.16,42.0,66.45,81.74,33.8,40.26,38.29,112.69,64.95,35.66,52.45,30.64,27.97,36.86,94.65,81.04,59.07,87.26,48.86,62.49,20.8,58.4,39.41,169.72,20.48,32.7,20.99,17.13,16.07,85.31,12.54,46.06,78.82,194.81,20.81,18.52,29.46,39.07,65.22,43.06,32.87,18.61,19.34,15.35,33.42,34.6,57.68,19.92,103.61,18.5,41.75,48.83,39.15,29.89,69.01,50.66,48.24,34.22,17.77,81.22,100.15,45.86,11.44,11.11,60.88,46.15,23.08,26.55,51.86,47.27,57.56,39.78,28.23,56.61,38.15,23.91,16.08,26.62,23.67,27.9,32.03,13.29,41.72,37.19,70.3,33.33,37.69,72.31,19.51,19.78,14.47,43.44,13.69,37.16,29.6,20.49,8.92,75.85,27.01,84.94,36.54,30.99,23.58,27.8,31.18,24.25,41.69,42.4,43.2,92.82,46.87,27.47,40.98,32.23,32.02,41.85,21.13,14.24,26.69,42.32,109.8,33.88,53.24,30.47,56.24,34.5,34.6,86.54,23.09,64.77,39.18,29.54,5.38,20.03,40.54,17.62,83.79,55.19,19.18,15.57,30.98,20.24,48.08,19.93,26.82,62.79,94.0,26.08,30.61,38.87,196.97,26.52,6.37,27.71,24.85,75.87,29.96,47.56,25.72,22.16,45.69,21.56,432.0,33.67,18.75,158.0,24.47,70.27,34.0,42.41,23.79,9.57,14.56,33.78,23.73,23.27,87.88,63.12,37.91,32.59,48.45,45.97,44.62,44.11,17.2,18.5,41.35,42.65,14.61,32.45,45.18,107.8,122.52,38.07,40.28,18.27,26.81,23.55,8.14,39.44,23.07,291.66,42.11,20.32,11.07,30.26,34.78,12.86,70.47,55.69,24.45,60.31,38.74,29.93,44.54,20.13,25.68,28.09,32.0,53.57,19.44,26.33,23.06,41.37,38.56,12.15,14.99,75.36,39.95,98.66,26.36,39.57,49.29,85.97,47.1,61.08,20.2,36.81,4.94,13.75,43.0,11.64,29.83,21.51,205.85,31.69,16.13,16.83,46.61,26.67,52.06,31.3,43.45,53.86,31.65,24.93,31.92,21.45,70.08,19.09,16.59,19.65,92.57,95.3,35.24,24.32,40.45,25.79,36.0,67.24,5.8,69.07,21.95,11.02,66.8,30.6,37.9,44.01,51.49,45.8,34.87,50.69,13.47,57.6,61.27,49.96,38.82,46.67,19.49,59.87,20.88,58.51,17.66,20.18,17.61,49.77,53.07,18.92,38.93,19.0,27.97,63.17,26.35,13.81,26.14,42.4,30.42,32.89,114.94,96.22,15.0,34.3,61.22,16.65,47.52,59.15,15.11,59.43,12.99,21.84,43.63,34.04,41.53,57.51,27.54,18.64,50.34,37.23,36.15,64.69,77.14,21.74,75.19,45.43,35.18,53.34,22.43,36.17,18.5,22.88,16.82,56.5,47.79,54.63,13.26,57.82,21.51,25.71,55.32,5.63,17.52,16.83,29.32,17.1,18.92,21.49,97.53,47.65,54.5,44.72,75.4,15.71,42.81,20.76,40.94,28.33,78.93,20.01,51.18,43.54,53.11,40.79,74.77,18.67,18.88,48.22,41.69,30.25,26.13,59.1,16.49,24.52,27.74,46.65,22.98,11.77,34.16,28.59,12.0,46.19,5.04,12.98,33.62,15.2,37.57,53.65,43.52,40.9,15.96,28.88,20.72,57.13,28.26,25.71,50.78,38.7,34.36,19.89,57.01,61.49,29.26,29.58,61.55,54.82,46.24,66.96,38.4,44.91,58.09,68.98,30.83,36.19,27.17,33.32,54.14,29.42,18.84,27.84,30.32,74.78,8.06,43.7,27.78,22.7,45.83,28.67,596.8,20.89,20.54,17.7,89.06,105.47,16.21,25.72,21.14,75.86,35.36,13.64,27.07,32.93,45.37,75.1,118.83
2008-03-20 16:00:00,29.51,31.99,132.7,19.62,47.99,52.33,31.81,34.45,24.71,36.63,35.85,32.0,33.57,32.73,16.08,41.89,56.92,55.57,742.58,23.85,57.38,30.59,41.65,17.57,14.35,19.07,6.11,39.52,49.47,38.9,73.19,15.72,70.98,37.44,38.81,104.69,59.0,80.13,35.18,58.76,42.33,67.32,84.53,33.97,40.71,41.92,116.64,66.14,38.71,52.5,31.16,29.53,38.62,96.14,81.1,60.09,92.91,49.34,62.05,21.8,59.0,42.28,184.07,21.24,33.39,21.08,17.13,16.46,86.96,12.43,45.88,82.13,214.76,21.07,18.78,29.49,38.52,65.3,44.3,33.36,19.41,20.1,15.48,33.51,37.63,57.91,19.27,102.3,18.5,41.82,50.5,39.59,31.37,69.2,53.6,48.82,35.98,17.81,85.21,109.71,45.72,11.6,11.27,61.21,49.69,22.52,28.53,50.14,48.05,59.97,39.79,28.9,55.83,38.61,24.21,16.55,26.71,23.98,29.01,31.94,13.4,41.65,37.86,71.43,33.85,37.67,72.07,20.01,20.02,15.95,43.32,14.68,37.87,30.23,20.67,9.6,77.36,26.67,83.63,36.81,31.04,23.58,30.0,31.5,24.55,42.84,45.23,45.26,92.37,48.46,28.6,40.84,32.49,33.02,42.11,21.52,14.63,26.79,42.8,108.97,35.43,52.33,30.77,55.67,37.2,34.82,87.13,22.8,65.83,42.11,30.8,5.54,20.95,40.3,19.12,84.56,55.87,19.49,16.28,31.51,20.67,48.7,21.33,27.42,62.64,94.2,26.41,32.27,39.64,193.66,25.57,6.59,27.69,24.97,76.42,31.56,48.43,26.25,22.42,48.8,22.58,433.55,34.09,19.48,170.47,26.26,72.1,34.33,44.03,24.39,10.13,15.05,34.76,24.43,24.33,88.38,65.92,38.32,34.84,47.73,48.16,42.16,44.02,17.86,18.64,42.0,43.0,15.11,33.39,45.12,109.08,124.85,38.36,41.81,18.84,26.51,22.9,8.24,39.91,23.15,300.69,42.52,22.07,10.48,30.72,37.55,13.27,71.65,56.12,25.16,58.12,41.93,31.46,44.89,21.46,26.51,29.89,32.21,54.0,20.55,26.8,23.5,44.03,39.13,12.41,16.6,74.46,40.7,97.79,26.99,39.47,51.99,85.4,49.97,61.08,21.34,36.9,5.13,14.53,44.39,12.13,30.29,23.02,217.7,32.73,16.73,17.66,47.27,27.01,52.83,33.19,43.85,55.45,32.94,24.93,32.24,21.93,68.76,19.33,16.47,19.96,90.94,90.16,35.55,25.01,46.25,26.29,35.69,72.25,5.98,69.41,21.95,11.1,67.76,30.37,39.68,44.03,51.54,43.21,36.24,50.24,13.6,62.66,61.42,49.23,37.8,47.26,19.75,62.79,20.75,59.08,18.52,20.44,17.47,52.74,54.65,18.65,39.65,19.51,29.33,63.87,27.29,14.45,26.09,43.52,30.72,33.55,118.63,96.91,15.6,34.7,62.1,16.63,49.64,60.51,15.47,59.95,14.53,21.95,46.2,34.4,40.74,61.14,27.88,18.62,50.89,37.19,37.04,68.88,79.29,22.72,74.32,44.41,35.57,55.83,22.5,36.16,19.7,23.16,17.06,58.98,48.3,55.12,14.74,58.34,21.64,25.94,55.77,6.37,18.27,16.86,29.37,18.2,18.68,21.55,103.87,49.05,54.34,45.16,75.85,15.07,43.58,20.55,40.94,29.02,82.05,20.95,50.99,43.03,57.19,41.32,79.53,19.24,19.09,49.9,42.49,30.22,26.32,61.15,17.09,24.94,28.36,46.86,23.47,12.07,34.77,29.35,12.32,48.23,5.24,13.25,35.46,15.95,38.46,54.0,45.74,42.12,16.09,28.51,21.12,57.28,27.81,25.87,51.29,39.32,34.14,20.23,55.98,62.38,30.73,31.01,61.77,62.44,46.87,68.96,37.94,45.35,59.37,72.48,32.31,37.07,27.94,33.69,52.59,29.12,18.95,29.64,31.8,77.67,8.11,44.56,28.0,22.85,48.04,28.74,602.12,20.89,20.87,18.79,92.58,109.96,16.44,27.4,21.39,76.37,35.95,13.99,27.66,34.02,48.4,78.1,121.03
2008-03-24 16:00:00,30.2,32.32,138.93,19.82,47.79,51.14,33.37,36.1,25.69,38.09,36.57,32.63,33.4,32.33,16.13,43.0,56.74,56.8,760.73,24.45,55.39,32.87,41.51,18.03,14.98,18.9,6.21,40.38,49.78,39.8,75.95,16.22,72.29,38.09,38.53,106.94,60.84,83.55,37.0,60.54,43.25,69.8,85.36,34.18,41.77,43.23,119.75,67.46,39.26,52.59,31.95,29.69,39.41,95.94,81.8,61.32,96.24,50.0,62.17,23.69,61.46,40.13,200.53,21.81,33.69,21.76,16.98,18.13,86.82,12.85,47.3,84.69,222.11,21.44,18.45,29.11,40.45,67.26,44.41,34.96,22.04,20.16,15.76,34.73,38.97,60.2,20.0,103.65,18.5,42.5,53.1,41.16,30.81,69.31,55.0,48.79,35.92,18.59,88.09,114.8,47.61,11.54,11.08,62.07,50.71,23.38,31.14,52.28,48.55,61.93,39.64,28.92,59.64,40.16,25.06,16.99,27.08,24.77,30.76,32.31,13.67,42.31,38.88,72.12,33.8,38.68,74.09,20.56,20.21,15.87,43.8,15.63,38.37,30.36,21.4,10.01,77.65,27.39,85.73,37.55,32.05,23.58,29.77,31.34,25.3,42.3,46.5,44.19,95.13,49.69,29.81,41.35,32.26,33.64,41.63,21.51,14.91,27.62,44.26,110.66,36.5,53.66,31.44,56.39,41.1,35.5,86.38,23.22,65.45,43.32,31.87,5.88,21.68,41.07,19.96,88.2,55.38,20.04,16.76,32.22,21.44,49.31,21.63,28.18,65.76,101.34,27.24,34.12,40.19,209.5,26.42,6.78,27.88,26.22,76.15,31.48,49.61,26.03,23.03,52.51,22.88,460.56,34.62,19.45,169.76,26.61,73.38,34.71,46.16,25.05,10.51,14.91,35.17,25.48,25.37,86.95,67.22,38.47,37.05,48.37,51.59,43.12,45.37,18.57,18.56,43.96,43.38,15.94,33.76,46.36,109.76,127.37,38.9,42.78,19.17,27.16,23.15,8.43,40.82,23.51,327.24,43.48,22.02,10.3,31.66,38.94,13.82,74.33,55.7,25.5,60.69,42.46,33.53,44.74,22.01,26.23,30.78,33.56,53.99,21.24,26.86,23.35,45.02,39.33,12.7,17.59,74.9,41.58,98.6,27.66,39.67,54.44,86.03,49.71,61.08,22.31,38.09,5.39,15.04,44.56,12.05,31.31,24.39,213.86,34.42,17.56,18.08,48.45,27.62,51.36,34.1,43.86,56.66,34.16,24.93,32.31,22.31,69.34,18.93,16.8,20.26,97.62,91.45,36.28,25.4,45.39,26.29,37.39,72.0,5.84,70.19,22.71,11.42,69.07,31.35,41.36,44.68,52.84,42.74,38.17,50.72,13.54,64.35,61.37,51.51,37.38,48.39,20.9,62.21,20.62,61.05,20.03,20.77,18.03,52.47,55.98,18.8,40.51,20.18,30.4,64.61,28.09,14.18,26.68,43.65,30.74,34.35,124.73,100.44,16.16,35.76,62.33,16.65,50.36,61.03,15.59,61.9,15.33,22.31,46.9,35.42,42.27,62.31,27.86,18.43,52.19,37.24,37.92,70.68,81.45,23.5,77.2,45.37,37.08,57.02,22.47,37.09,20.08,24.67,18.35,61.89,50.03,56.81,14.53,60.41,21.8,25.88,55.76,6.58,18.21,17.2,29.2,18.48,18.62,22.43,111.59,48.18,55.45,45.2,76.44,15.44,44.13,21.77,40.94,28.73,80.16,21.59,50.38,43.67,56.09,42.04,78.61,19.89,19.26,51.55,43.86,30.97,26.31,61.75,17.14,25.22,29.27,48.76,24.92,11.96,34.74,30.19,12.84,49.42,5.4,13.92,39.18,16.17,38.54,55.46,47.11,42.03,16.15,28.97,21.41,58.56,28.68,26.59,51.27,39.72,34.51,20.33,57.59,63.86,32.51,31.15,62.96,57.96,47.07,69.14,38.75,45.87,63.5,74.02,33.36,37.63,28.6,35.37,52.93,31.52,18.68,29.22,32.7,77.34,8.33,44.67,28.37,23.21,48.4,29.11,597.08,21.01,21.39,19.93,97.96,113.76,16.42,28.19,22.05,77.22,36.73,14.02,27.52,34.48,49.18,78.5,123.45
2008-03-25 16:00:00,30.17,32.97,140.38,19.74,47.01,50.49,32.52,36.54,25.72,38.92,37.15,33.12,33.14,32.26,16.17,43.77,57.24,56.05,755.78,24.41,56.16,32.59,41.65,18.1,14.97,18.68,6.3,40.24,49.91,39.72,75.17,15.91,73.23,39.32,38.58,109.73,61.29,83.81,37.64,60.09,43.57,70.71,84.68,34.16,41.7,43.32,119.88,67.12,37.89,52.64,31.55,29.53,38.97,95.64,81.7,61.38,97.39,49.71,63.47,23.63,61.19,40.42,202.49,22.39,33.62,22.2,17.24,18.3,86.0,12.97,48.77,86.0,223.54,21.84,18.54,29.04,41.02,67.8,44.21,35.92,21.81,20.0,15.67,35.25,38.75,61.34,20.15,110.46,18.5,43.82,52.35,41.66,30.67,69.73,55.44,49.41,35.67,18.9,90.84,113.57,48.53,11.67,11.34,65.08,49.5,24.27,30.51,52.7,47.86,62.96,39.55,29.29,60.96,39.35,25.16,17.41,27.05,24.74,30.56,32.62,13.92,41.5,39.1,72.57,33.64,39.21,74.81,20.42,20.18,16.39,43.98,15.21,38.74,30.4,21.85,9.8,78.24,29.38,86.74,38.34,32.22,23.58,29.88,31.21,25.08,41.81,46.13,46.35,98.74,50.18,29.4,41.69,32.05,33.51,41.71,21.39,14.94,27.74,45.27,112.81,36.52,54.16,31.59,56.77,42.0,35.99,86.72,22.76,64.67,43.81,32.17,5.92,21.79,42.76,19.84,88.86,55.13,20.62,16.81,33.22,21.41,49.56,21.24,28.89,67.72,102.41,27.84,33.24,39.88,219.73,26.53,6.6,28.14,25.4,75.84,31.37,51.01,25.87,23.52,52.37,22.72,450.78,34.36,18.89,170.47,26.22,73.75,35.48,45.5,25.36,10.85,15.02,35.43,25.64,24.94,87.05,66.44,38.76,36.17,49.24,49.97,45.03,45.69,18.66,18.84,44.13,43.31,16.07,33.97,46.83,108.75,131.97,39.09,42.96,19.29,27.47,23.13,8.33,41.82,23.85,325.93,43.91,22.48,10.3,32.09,38.99,14.11,76.15,55.41,26.58,62.26,42.01,33.05,45.12,21.96,26.09,30.72,33.61,54.38,21.44,26.96,23.55,45.18,40.0,12.68,17.67,74.5,42.38,99.14,27.47,39.73,54.97,87.07,50.15,61.08,21.75,38.25,5.42,14.76,45.18,12.33,30.42,23.64,222.24,34.25,17.44,17.83,48.82,27.97,49.58,34.07,43.88,56.43,34.09,24.93,32.31,22.38,69.64,19.09,17.19,20.58,107.25,96.43,36.62,25.32,46.04,26.26,37.66,72.33,5.79,71.59,22.96,11.58,70.6,32.7,41.7,45.57,53.0,44.01,37.12,52.45,13.57,63.69,61.77,53.92,37.77,50.1,20.95,63.17,20.42,62.45,20.32,20.89,18.2,53.51,57.97,18.93,41.16,20.48,29.87,65.54,27.54,14.94,26.76,43.5,30.54,34.6,122.5,101.39,17.76,35.48,62.41,16.78,50.74,60.66,15.64,63.36,14.91,22.44,46.24,36.09,42.89,61.43,27.69,18.47,52.63,37.72,37.25,69.86,77.76,23.84,77.35,46.51,37.92,56.24,22.76,38.11,20.05,24.53,18.2,61.39,50.69,57.95,14.6,61.38,22.13,26.19,56.89,6.42,18.38,17.3,29.21,18.85,18.49,23.1,107.82,47.62,56.46,45.54,77.73,15.45,44.9,21.76,40.94,28.68,82.29,21.48,50.57,44.1,54.47,41.93,80.12,19.55,19.21,49.22,44.01,32.08,26.12,62.37,17.09,25.05,29.24,48.59,24.25,11.99,34.96,30.02,12.53,49.23,5.41,14.43,40.01,16.2,38.77,56.33,48.21,42.09,15.83,28.48,21.62,58.92,29.21,26.79,52.18,40.02,34.1,20.33,59.17,63.84,32.76,31.27,62.8,61.37,48.02,69.14,39.05,44.05,61.81,75.09,32.9,37.53,28.54,34.82,53.68,30.55,18.82,29.19,32.34,76.72,8.23,44.52,28.79,23.54,47.87,29.06,607.08,20.75,21.85,20.0,99.41,119.58,16.46,28.0,22.25,76.55,36.99,14.1,28.73,34.74,48.46,78.39,123.57
2008-03-26 16:00:00,29.84,33.23,144.44,19.64,46.58,49.73,32.5,37.2,25.46,38.63,37.11,32.74,33.52,33.24,16.24,42.74,56.92,56.05,726.91,23.56,55.38,32.12,41.17,17.98,14.69,18.38,6.22,41.38,48.22,40.28,73.8,15.29,71.09,42.34,37.88,116.35,63.05,83.26,36.96,60.93,43.23,70.01,81.97,34.06,41.88,41.36,117.92,67.47,36.84,52.0,31.32,28.23,38.5,94.04,79.91,60.76,94.3,49.34,65.96,23.31,62.99,38.94,197.47,22.13,33.13,22.0,16.92,18.63,85.64,12.74,50.66,82.62,210.46,21.84,18.47,29.17,42.1,68.43,44.4,35.62,21.31,19.89,15.55,35.72,37.92,61.82,19.76,110.73,18.5,44.72,51.62,41.01,30.11,69.26,58.16,49.13,33.95,18.13,88.26,115.0,46.65,11.54,11.32,67.3,47.82,25.32,29.63,52.09,49.0,62.99,40.62,28.8,59.24,39.07,24.22,17.27,26.7,24.29,30.56,32.0,13.78,40.65,39.19,72.94,33.77,38.82,73.52,20.16,20.02,15.22,43.41,14.23,38.3,30.09,21.32,9.55,76.75,29.66,87.96,37.77,32.18,23.58,29.07,31.22,25.24,42.14,46.29,47.16,103.21,49.46,29.47,41.27,31.79,33.34,42.41,21.46,14.57,27.49,44.97,116.87,34.89,54.3,31.18,58.06,39.9,35.55,87.94,22.83,65.16,42.29,32.94,5.79,21.48,45.09,18.97,88.67,54.74,19.97,15.71,32.01,20.8,48.93,20.44,29.15,67.98,103.83,27.67,32.73,39.28,220.19,27.78,6.47,27.56,25.13,74.98,31.25,50.24,25.76,22.67,51.53,21.69,458.19,33.94,18.78,166.53,25.45,73.23,36.92,44.42,24.69,10.24,14.67,34.75,26.17,24.42,90.11,65.39,38.92,35.52,48.91,48.89,45.87,44.82,18.36,18.69,44.17,42.72,15.51,33.52,45.91,107.78,133.84,38.86,42.4,18.94,27.39,23.6,8.17,41.05,23.5,323.97,43.17,22.2,8.41,31.25,37.16,13.78,75.47,55.54,26.2,62.03,40.24,30.76,44.94,20.81,26.23,30.17,33.25,54.02,19.72,26.85,23.29,43.67,39.23,12.27,16.47,73.69,42.74,98.02,26.77,39.74,53.66,86.41,48.57,61.08,21.32,37.77,5.08,14.49,44.17,11.68,30.37,22.39,220.14,34.15,16.98,17.55,48.3,27.39,50.25,34.31,43.64,55.47,33.8,24.93,32.17,21.68,69.36,18.66,17.11,20.45,107.44,100.88,36.65,25.63,44.5,25.74,38.67,70.35,5.5,73.41,22.67,11.87,70.76,33.15,41.67,46.27,53.08,44.6,37.86,53.88,13.54,61.73,61.36,55.02,38.41,48.48,20.72,61.06,20.47,61.65,19.67,20.72,17.94,52.7,57.12,18.98,41.15,20.34,28.91,67.54,27.2,14.48,26.47,42.69,30.82,33.84,120.95,101.19,17.35,34.58,62.08,16.71,48.95,60.74,15.35,62.7,14.06,22.62,45.29,35.93,41.69,60.21,27.58,18.55,51.53,37.93,36.25,68.99,76.78,23.06,76.84,48.12,37.64,56.51,22.58,38.7,19.21,23.97,18.05,59.98,49.88,57.98,14.29,63.41,22.03,25.99,56.76,6.52,18.01,16.98,29.3,18.19,18.72,22.74,107.63,46.45,56.39,44.8,81.38,15.68,43.76,21.17,40.94,28.64,81.19,21.38,51.38,44.33,51.76,42.07,76.81,19.72,18.08,48.07,43.25,33.52,26.13,61.06,17.04,24.97,29.06,48.32,23.26,12.1,35.04,30.4,12.29,48.3,5.26,14.69,40.78,15.78,37.92,56.07,46.57,41.91,15.7,29.29,21.39,57.33,28.23,26.48,53.31,40.56,32.96,20.38,58.65,63.31,31.29,30.45,62.31,62.06,47.16,68.88,38.68,44.84,60.13,73.3,32.0,36.9,27.96,34.77,56.19,29.47,18.84,28.05,32.14,75.48,8.03,44.28,28.95,23.53,47.74,29.12,599.26,20.16,21.52,19.79,98.91,121.37,16.52,26.09,21.8,77.5,36.36,13.75,28.49,34.48,46.58,77.61,122.06
2008-03-27 16:00:00,29.08,32.63,139.65,19.37,46.17,49.78,32.58,35.68,25.42,38.23,36.76,31.43,33.84,33.11,16.29,42.05,56.69,56.28,717.01,23.12,55.76,30.06,41.56,17.59,14.57,18.06,6.16,40.88,47.11,40.23,70.8,15.27,70.47,42.92,37.37,115.81,62.29,82.36,36.67,56.34,43.01,67.21,79.71,34.05,41.52,40.88,115.16,65.63,35.73,51.91,30.12,27.5,38.49,95.35,80.62,58.76,93.39,48.83,65.41,23.01,62.46,38.2,180.87,21.78,32.24,21.69,17.0,18.26,87.4,12.83,49.36,81.8,207.98,21.34,19.79,29.49,41.76,68.14,44.21,35.94,21.06,19.44,15.32,35.05,37.52,60.92,19.32,106.51,18.5,43.53,50.54,41.37,29.79,69.38,56.89,48.71,32.72,18.01,88.35,112.72,44.61,11.5,11.3,67.13,47.09,25.1,29.48,52.03,48.63,61.71,40.99,29.04,56.63,38.57,23.63,16.81,26.17,23.8,29.49,31.1,13.54,40.86,38.85,72.45,33.88,38.46,72.22,19.47,19.63,15.44,43.88,14.54,37.8,29.73,20.95,9.17,76.73,29.45,88.09,36.99,31.74,23.58,28.12,31.43,24.84,41.81,45.81,47.57,100.95,48.15,30.74,41.02,31.74,32.92,42.8,21.73,14.33,27.16,44.64,114.46,34.41,54.4,31.51,57.59,38.1,34.77,89.47,22.61,66.22,42.83,32.16,5.75,21.21,45.21,18.44,89.12,54.93,19.07,14.91,30.99,20.5,48.17,19.87,28.84,66.11,99.53,26.93,31.97,39.91,227.49,26.87,6.45,27.77,23.86,74.16,31.0,49.98,26.06,22.61,52.52,21.78,444.08,33.39,18.39,159.57,25.26,71.86,37.05,43.56,24.81,9.93,14.59,34.41,26.2,24.09,87.1,65.64,39.13,35.42,48.36,47.4,44.9,44.15,17.76,18.78,43.73,42.52,15.53,33.54,45.99,106.49,131.18,38.95,39.12,18.27,26.77,23.22,8.05,40.36,23.61,321.86,42.77,21.55,8.17,30.53,36.13,13.69,73.94,55.47,24.9,61.51,39.1,30.9,45.15,20.23,26.33,29.84,33.37,53.46,19.19,26.92,22.9,43.04,38.88,11.98,16.76,74.1,42.44,97.45,26.18,39.93,51.97,85.39,48.68,61.08,21.14,37.59,4.97,14.41,44.1,12.06,30.25,21.64,218.01,33.41,16.96,16.78,48.17,26.7,50.02,33.47,43.42,55.56,33.26,24.93,33.71,20.97,68.66,17.99,17.17,20.13,106.2,102.57,36.71,25.27,42.54,25.28,36.66,69.56,5.52,72.96,22.24,11.56,69.62,33.44,39.4,45.73,53.57,43.82,36.36,52.6,13.4,61.46,60.94,54.02,38.74,48.31,20.11,60.23,20.57,59.72,19.39,20.46,17.72,51.57,56.86,18.87,40.52,18.88,28.62,66.85,27.59,14.68,26.18,41.93,30.85,33.25,118.88,101.11,17.04,34.87,62.1,16.61,49.26,60.54,15.25,61.3,14.28,22.64,45.14,35.45,42.01,61.38,27.52,18.67,51.35,37.53,37.18,68.64,76.24,23.08,76.78,48.31,36.92,55.75,22.66,38.82,18.66,23.76,17.53,59.72,50.41,57.55,14.23,61.56,21.79,25.68,56.15,6.49,17.81,16.94,29.34,17.23,18.54,22.31,105.48,46.19,55.85,44.95,80.3,15.63,42.77,21.62,40.94,28.64,81.05,21.0,50.53,46.05,50.51,42.23,76.65,18.5,18.03,45.62,42.22,32.52,26.0,62.12,17.02,24.69,28.98,47.82,22.51,12.44,35.13,29.89,12.51,46.97,5.3,14.2,39.64,15.64,37.83,55.43,45.4,41.83,15.34,27.51,22.25,57.57,27.99,26.15,51.95,40.5,32.86,20.21,57.6,63.39,30.54,30.09,62.13,61.04,47.25,68.58,38.67,44.39,60.33,73.18,31.33,36.24,27.82,34.13,56.41,27.06,19.12,27.55,32.31,74.81,7.96,43.59,28.39,23.68,47.26,29.1,589.82,19.89,21.26,18.76,94.76,116.66,16.47,25.63,21.01,77.45,37.49,13.76,28.09,34.05,44.7,76.72,121.67
2008-03-28 16:00:00,29.44,33.31,142.4,19.42,45.75,49.27,32.46,35.33,25.24,38.54,36.59,31.77,33.47,32.84,16.32,41.36,57.07,55.59,706.12,22.09,55.08,29.58,41.13,17.36,14.58,17.64,5.91,40.84,46.16,38.69,69.76,14.65,66.66,43.48,37.31,115.67,61.17,81.26,36.25,41.21,42.32,66.16,77.81,33.41,40.78,39.34,113.25,64.97,35.21,52.01,29.11,27.33,36.94,94.06,80.11,58.18,88.84,48.83,63.75,22.42,60.73,37.63,178.09,21.78,32.42,21.64,17.14,18.52,89.04,12.61,49.46,81.1,198.82,21.23,20.33,29.58,41.83,68.2,44.17,35.28,20.96,19.03,15.2,34.51,36.54,59.44,19.2,105.77,18.5,43.03,50.11,40.87,29.85,69.76,57.45,48.37,31.91,17.46,86.52,109.6,44.29,11.29,11.19,66.26,45.71,24.99,27.87,52.57,48.59,60.86,40.99,29.23,56.85,38.6,23.53,17.14,25.8,23.46,29.18,30.56,13.43,40.01,38.81,72.54,33.64,38.5,72.94,19.61,19.8,15.21,44.11,14.38,37.26,29.37,20.13,9.0,75.84,29.21,87.08,36.95,31.55,23.58,27.68,31.1,24.64,41.6,39.08,47.98,100.08,49.34,30.22,40.45,31.41,32.62,42.62,21.5,14.3,27.05,44.64,115.39,33.85,53.12,31.75,55.37,37.4,34.32,89.21,22.43,65.31,41.96,31.23,5.51,21.24,44.7,17.83,88.68,54.55,19.1,13.99,30.22,20.19,47.76,19.4,28.48,67.04,98.14,26.96,30.1,39.32,228.68,26.79,6.36,27.6,23.56,74.37,30.81,49.61,26.22,22.56,50.47,21.68,438.08,33.49,17.79,156.06,24.8,70.44,37.15,43.58,24.78,9.64,14.6,34.27,25.26,23.74,85.96,65.96,39.8,34.57,49.1,47.77,45.05,43.63,17.75,18.97,43.43,42.33,15.29,33.23,44.52,105.62,129.75,39.44,37.05,18.01,26.64,23.13,8.06,40.66,23.64,322.71,42.38,21.32,8.34,29.94,33.42,13.12,74.09,55.09,24.3,61.17,38.96,29.14,45.64,20.01,26.23,30.25,33.17,53.26,19.2,26.76,23.28,40.92,38.77,11.83,16.8,73.0,42.61,99.77,26.42,39.82,50.3,85.51,47.94,61.08,20.82,37.73,4.98,14.25,43.14,11.91,29.41,20.35,214.95,32.86,16.51,16.75,48.2,26.3,49.4,32.59,43.24,54.67,32.91,24.93,32.84,20.77,68.74,17.33,17.31,19.97,107.02,103.28,36.49,24.98,41.66,25.15,35.54,68.36,5.46,74.5,22.18,11.49,69.62,33.39,38.79,45.43,52.46,43.76,35.59,52.04,13.23,61.35,61.03,54.26,38.29,48.31,20.12,59.12,20.54,59.59,19.68,20.04,17.47,51.07,56.9,18.48,40.69,18.82,27.77,66.87,27.67,14.22,25.91,40.89,30.59,32.76,121.99,100.85,16.65,34.95,62.43,16.56,48.92,60.57,15.19,62.18,13.91,22.75,45.14,35.5,42.32,59.6,27.04,18.84,51.09,37.08,36.67,68.29,76.02,22.7,75.24,48.15,37.31,54.54,22.53,37.48,17.82,23.59,18.49,56.41,50.61,57.13,13.88,61.71,22.05,25.56,56.7,6.41,18.04,16.4,28.9,16.87,18.46,22.16,102.2,46.02,55.56,45.02,80.57,14.47,43.32,21.26,40.94,28.41,79.74,20.83,51.48,46.04,50.48,41.97,75.14,18.35,17.66,46.83,41.5,33.22,25.79,61.66,16.82,24.58,28.98,47.69,21.92,12.33,35.16,30.22,12.41,45.78,5.51,14.33,37.8,15.36,37.64,56.16,44.18,41.79,15.37,27.86,21.85,56.03,27.21,25.92,52.31,40.44,33.25,20.22,57.34,62.9,30.27,29.71,61.36,60.9,47.18,66.2,38.1,44.83,59.67,73.74,30.58,35.88,27.73,34.29,55.72,26.69,18.99,26.72,31.63,74.73,7.95,42.02,28.45,23.4,47.04,29.34,581.66,19.97,20.99,18.59,91.52,120.66,16.4,25.24,20.6,76.57,37.76,13.68,28.99,33.52,44.11,76.53,120.51
